3002.7630,-3.0000,0.0000,-1.0000,1.0000,-4.0000,0.0000,-4.0000,0.0000,0
3007.7630,2.0000,-1.0000,1.0000,-1.0000,1.0000,2.0000,-2.0000,1.0000,0
3012.7630,-3.0000,0.0000,-3.0000,-1.0000,3.0000,0.0000,-1.0000,-2.0000,0
3017.7630,-1.0000,-1.0000,-3.0000,-1.0000,-2.0000,1.0000,1.0000,-1.0000,0
3022.7630,-1.0000,-1.0000,-3.0000,-1.0000,-2.0000,1.0000,1.0000,-1.0000,0
3027.7630,2.0000,0.0000,-1.0000,-2.0000,2.0000,-2.0000,-2.0000,0.0000,0
3032.7630,-1.0000,0.0000,-1.0000,1.0000,0.0000,-1.0000,1.0000,1.0000,0
3037.7630,-2.0000,-3.0000,-1.0000,-2.0000,-1.0000,-1.0000,-1.0000,0.0000,0
3042.7630,1.0000,1.0000,-3.0000,-1.0000,-1.0000,-1.0000,1.0000,1.0000,0
3047.7630,-3.0000,-1.0000,-1.0000,-1.0000,0.0000,1.0000,-2.0000,-1.0000,0
3052.7630,-2.0000,0.0000,0.0000,0.0000,-2.0000,-1.0000,2.0000,-1.0000,0
3057.7630,1.0000,2.0000,0.0000,-3.0000,-1.0000,-2.0000,-3.0000,0.0000,0
3062.7630,-1.0000,-5.0000,-1.0000,-3.0000,-3.0000,0.0000,-1.0000,-1.0000,0
3067.7630,0.0000,-2.0000,0.0000,0.0000,2.0000,-3.0000,-1.0000,-4.0000,0
3072.7630,0.0000,1.0000,-1.0000,-1.0000,0.0000,-1.0000,-1.0000,-1.0000,0
3077.7630,0.0000,1.0000,-1.0000,-1.0000,0.0000,-1.0000,-1.0000,-1.0000,0
3082.7630,-1.0000,2.0000,0.0000,0.0000,-2.0000,-3.0000,-1.0000,-1.0000,0
3087.7630,1.0000,-1.0000,-2.0000,-1.0000,-2.0000,0.0000,1.0000,0.0000,0
3092.7630,1.0000,-1.0000,-2.0000,-3.0000,-2.0000,0.0000,-1.0000,-1.0000,0
3097.7630,-2.0000,0.0000,-1.0000,1.0000,-2.0000,-1.0000,-2.0000,-1.0000,0
3102.7630,0.0000,0.0000,0.0000,2.0000,1.0000,1.0000,-1.0000,0.0000,0
3107.7630,-1.0000,0.0000,-2.0000,-2.0000,-1.0000,-1.0000,2.0000,-2.0000,0
3112.7630,-1.0000,0.0000,-2.0000,-2.0000,-1.0000,-1.0000,2.0000,-2.0000,0
3117.7630,-2.0000,-3.0000,-2.0000,-3.0000,-2.0000,1.0000,-2.0000,0.0000,0
3122.7630,-3.0000,-1.0000,-3.0000,-1.0000,2.0000,-2.0000,-2.0000,0.0000,0
3127.7630,-3.0000,-1.0000,-3.0000,-1.0000,2.0000,-2.0000,-2.0000,0.0000,0
3132.7630,2.0000,1.0000,1.0000,-2.0000,-1.0000,0.0000,0.0000,-3.0000,0
3137.7630,-1.0000,1.0000,-3.0000,2.0000,0.0000,0.0000,0.0000,-3.0000,0
3142.7630,-2.0000,-1.0000,-1.0000,-4.0000,-1.0000,-2.0000,-1.0000,-2.0000,0
3147.7630,-3.0000,-3.0000,-3.0000,-1.0000,-2.0000,-1.0000,0.0000,1.0000,0
3152.7630,0.0000,1.0000,0.0000,1.0000,1.0000,0.0000,-1.0000,1.0000,0
3157.7630,-1.0000,0.0000,0.0000,-2.0000,-1.0000,0.0000,1.0000,1.0000,0
3162.7630,-1.0000,0.0000,0.0000,-2.0000,-1.0000,0.0000,1.0000,1.0000,0
3167.7630,-1.0000,-5.0000,1.0000,-2.0000,-1.0000,-2.0000,-2.0000,-1.0000,0
3172.7630,0.0000,-5.0000,-2.0000,1.0000,-3.0000,0.0000,0.0000,-1.0000,0
3177.7630,-1.0000,-4.0000,0.0000,0.0000,-1.0000,-1.0000,0.0000,0.0000,0
3182.7630,-1.0000,-4.0000,0.0000,0.0000,-1.0000,-1.0000,0.0000,0.0000,0
3187.7630,-1.0000,-2.0000,-1.0000,0.0000,1.0000,0.0000,-1.0000,-2.0000,0
3192.7630,-1.0000,-2.0000,-1.0000,-1.0000,0.0000,-1.0000,1.0000,-1.0000,0
3197.7630,0.0000,1.0000,0.0000,0.0000,3.0000,-3.0000,-1.0000,0.0000,0
3202.7630,1.0000,2.0000,0.0000,-4.0000,-1.0000,-2.0000,-1.0000,-1.0000,0
3207.7630,-2.0000,2.0000,-1.0000,1.0000,-4.0000,0.0000,0.0000,-1.0000,0
3212.7630,-3.0000,0.0000,0.0000,-2.0000,0.0000,0.0000,-2.0000,-2.0000,0
3217.7630,1.0000,1.0000,-3.0000,-1.0000,-2.0000,-1.0000,-2.0000,-1.0000,0
3222.7630,1.0000,1.0000,-3.0000,-1.0000,-2.0000,-1.0000,-2.0000,-1.0000,0
3227.7630,-2.0000,-2.0000,-1.0000,2.0000,1.0000,-2.0000,-3.0000,-1.0000,0
3232.7630,0.0000,1.0000,-3.0000,-1.0000,-1.0000,-2.0000,-3.0000,-1.0000,0
3237.7630,-1.0000,-3.0000,-1.0000,3.0000,0.0000,1.0000,-1.0000,-2.0000,0
3242.7630,-1.0000,-3.0000,-1.0000,3.0000,0.0000,1.0000,-1.0000,-2.0000,0
3247.7630,-2.0000,0.0000,4.0000,6.0000,0.0000,0.0000,1.0000,0.0000,0
3252.7630,0.0000,-1.0000,-1.0000,2.0000,0.0000,1.0000,-1.0000,-1.0000,0
3257.7630,-1.0000,-1.0000,3.0000,0.0000,-2.0000,1.0000,0.0000,-3.0000,0
3262.7630,-1.0000,-1.0000,0.0000,-3.0000,1.0000,-3.0000,0.0000,0.0000,0
3267.7630,-2.0000,-1.0000,-2.0000,0.0000,-2.0000,0.0000,-1.0000,0.0000,0
3272.7630,-2.0000,1.0000,-1.0000,-3.0000,-1.0000,-1.0000,-1.0000,-1.0000,0
3277.7630,1.0000,0.0000,-4.0000,-1.0000,-1.0000,1.0000,-2.0000,-3.0000,0
3282.7630,-2.0000,-1.0000,-1.0000,3.0000,-3.0000,2.0000,-3.0000,-1.0000,0
3287.7630,2.0000,2.0000,-1.0000,-4.0000,1.0000,-3.0000,-1.0000,1.0000,0
3292.7630,-1.0000,-3.0000,0.0000,0.0000,1.0000,-1.0000,-3.0000,0.0000,0
3297.7630,-2.0000,-2.0000,-1.0000,-2.0000,1.0000,-1.0000,-2.0000,-1.0000,0
3302.7630,0.0000,-4.0000,-4.0000,2.0000,-2.0000,0.0000,0.0000,-2.0000,0
3307.7630,1.0000,0.0000,-3.0000,-3.0000,0.0000,-2.0000,-1.0000,1.0000,0
3312.7630,-1.0000,1.0000,-1.0000,0.0000,1.0000,1.0000,0.0000,-1.0000,0
3317.7630,-2.0000,-1.0000,2.0000,4.0000,1.0000,-1.0000,-3.0000,1.0000,0
3322.7630,-3.0000,-2.0000,-1.0000,0.0000,-1.0000,-1.0000,-2.0000,3.0000,0
3327.7630,1.0000,-2.0000,2.0000,0.0000,-2.0000,0.0000,0.0000,0.0000,0
3332.7630,-1.0000,-1.0000,0.0000,-4.0000,-4.0000,0.0000,0.0000,-1.0000,0
3337.7630,-1.0000,-1.0000,0.0000,-4.0000,-4.0000,0.0000,0.0000,-1.0000,0
3342.7630,-1.0000,-2.0000,-1.0000,0.0000,-2.0000,0.0000,0.0000,-2.0000,0
3347.7630,1.0000,1.0000,1.0000,-1.0000,-3.0000,0.0000,1.0000,-1.0000,0
3352.7630,1.0000,1.0000,1.0000,-1.0000,-3.0000,0.0000,1.0000,-1.0000,0
3357.7630,-1.0000,1.0000,-1.0000,0.0000,1.0000,-2.0000,2.0000,1.0000,0
3367.2720,-1.0000,1.0000,-1.0000,0.0000,1.0000,-2.0000,2.0000,1.0000,0
3372.2720,-2.0000,-1.0000,1.0000,-3.0000,-1.0000,0.0000,-1.0000,-2.0000,0
3377.2720,-2.0000,0.0000,-3.0000,-2.0000,0.0000,0.0000,-2.0000,-2.0000,0
3382.2720,0.0000,4.0000,1.0000,2.0000,-3.0000,-1.0000,0.0000,0.0000,0
3387.2720,1.0000,2.0000,0.0000,-2.0000,-1.0000,0.0000,-1.0000,-1.0000,0
3392.2720,1.0000,-2.0000,0.0000,1.0000,1.0000,-3.0000,-1.0000,-1.0000,0
3397.2720,-1.0000,-1.0000,-4.0000,-2.0000,1.0000,1.0000,-1.0000,-1.0000,0
3402.2720,0.0000,-3.0000,0.0000,-1.0000,1.0000,-3.0000,-3.0000,-1.0000,0
3407.2720,0.0000,1.0000,-1.0000,-1.0000,-2.0000,0.0000,-1.0000,0.0000,0
3412.2720,0.0000,-1.0000,4.0000,-3.0000,-1.0000,2.0000,-1.0000,-1.0000,0
3417.2720,1.0000,-2.0000,-3.0000,-1.0000,1.0000,-3.0000,-2.0000,0.0000,0
3422.2720,-1.0000,-1.0000,-1.0000,-4.0000,-4.0000,-1.0000,-1.0000,1.0000,0
3427.2720,2.0000,2.0000,2.0000,-1.0000,-1.0000,0.0000,1.0000,-1.0000,0
3432.2720,-3.0000,-1.0000,-3.0000,3.0000,-1.0000,-2.0000,1.0000,-2.0000,0
3437.2720,-1.0000,0.0000,-1.0000,-2.0000,1.0000,0.0000,-1.0000,-2.0000,0
3442.2720,2.0000,-2.0000,-1.0000,-2.0000,0.0000,0.0000,1.0000,-2.0000,0
3447.2720,-2.0000,-5.0000,-1.0000,-4.0000,0.0000,2.0000,0.0000,-1.0000,0
3452.2720,-3.0000,-1.0000,-1.0000,-3.0000,0.0000,-1.0000,0.0000,-2.0000,0
3457.2720,-2.0000,1.0000,0.0000,-1.0000,0.0000,-2.0000,1.0000,-2.0000,0
3462.2720,0.0000,3.0000,-1.0000,2.0000,-1.0000,-2.0000,0.0000,-1.0000,0
3467.2720,1.0000,-1.0000,-2.0000,-2.0000,-1.0000,-2.0000,-3.0000,1.0000,0
3472.2720,2.0000,-1.0000,4.0000,0.0000,-1.0000,1.0000,3.0000,-1.0000,0
3477.2720,-1.0000,-3.0000,-2.0000,-3.0000,-1.0000,0.0000,-2.0000,-2.0000,0
3482.2720,0.0000,-2.0000,-3.0000,-1.0000,-2.0000,-1.0000,-1.0000,1.0000,0
3487.2720,0.0000,-1.0000,-1.0000,1.0000,-2.0000,-2.0000,-2.0000,-1.0000,0
3492.2720,0.0000,-4.0000,-2.0000,-2.0000,0.0000,0.0000,-2.0000,1.0000,0
3497.2720,1.0000,-2.0000,0.0000,2.0000,-1.0000,1.0000,1.0000,-1.0000,0
3502.2720,0.0000,2.0000,2.0000,-2.0000,-3.0000,0.0000,-2.0000,1.0000,0
3507.2720,-3.0000,2.0000,-1.0000,1.0000,1.0000,0.0000,-1.0000,1.0000,0
3512.2720,-2.0000,-2.0000,-2.0000,2.0000,0.0000,0.0000,0.0000,0.0000,0
3517.2720,-3.0000,0.0000,-1.0000,-1.0000,-1.0000,-1.0000,1.0000,2.0000,0
3522.2720,1.0000,-1.0000,2.0000,5.0000,-1.0000,0.0000,-1.0000,-1.0000,0
3527.2720,-4.0000,0.0000,-1.0000,2.0000,-2.0000,-2.0000,-1.0000,-2.0000,0
3532.2720,0.0000,-1.0000,-2.0000,0.0000,-2.0000,-1.0000,0.0000,-1.0000,0
3537.2720,-1.0000,-1.0000,0.0000,-1.0000,0.0000,0.0000,0.0000,-2.0000,0
3542.2720,-1.0000,0.0000,-2.0000,-4.0000,-4.0000,0.0000,0.0000,-1.0000,0
3547.2720,2.0000,1.0000,0.0000,-4.0000,1.0000,0.0000,1.0000,-3.0000,0
3552.2720,1.0000,-1.0000,-4.0000,-2.0000,-3.0000,-2.0000,-1.0000,-1.0000,0
3557.2720,2.0000,0.0000,3.0000,2.0000,0.0000,1.0000,1.0000,0.0000,0
3562.2720,-3.0000,-2.0000,0.0000,0.0000,-1.0000,0.0000,-3.0000,-1.0000,0
3567.2720,0.0000,-4.0000,0.0000,1.0000,-1.0000,0.0000,-1.0000,1.0000,0
3572.2720,-1.0000,-2.0000,-1.0000,-4.0000,1.0000,-3.0000,-6.0000,0.0000,0
3577.2720,0.0000,0.0000,1.0000,-1.0000,-2.0000,-2.0000,0.0000,-1.0000,0
3582.2720,0.0000,3.0000,1.0000,0.0000,1.0000,-2.0000,1.0000,-2.0000,0
3587.2720,-2.0000,-3.0000,-2.0000,-1.0000,-1.0000,-1.0000,2.0000,1.0000,0
3592.2720,0.0000,-2.0000,-4.0000,-2.0000,1.0000,-1.0000,1.0000,-1.0000,0
3597.2720,0.0000,-2.0000,-4.0000,2.0000,-2.0000,1.0000,-2.0000,0.0000,0
3602.2720,1.0000,0.0000,-1.0000,-1.0000,0.0000,-1.0000,-1.0000,-2.0000,0
3607.2720,-2.0000,0.0000,0.0000,1.0000,-2.0000,0.0000,-1.0000,-1.0000,0
3612.2720,-2.0000,2.0000,2.0000,1.0000,0.0000,1.0000,-1.0000,-2.0000,0
3617.2720,-3.0000,0.0000,-3.0000,-3.0000,0.0000,-3.0000,-1.0000,0.0000,0
3622.2720,0.0000,-2.0000,-3.0000,0.0000,0.0000,-1.0000,-1.0000,-1.0000,0
3627.2720,1.0000,1.0000,-1.0000,-1.0000,-1.0000,-1.0000,0.0000,-2.0000,0
3632.2720,-2.0000,-2.0000,-2.0000,0.0000,-1.0000,0.0000,-2.0000,-3.0000,0
3637.2720,1.0000,-2.0000,0.0000,-2.0000,-2.0000,1.0000,-1.0000,0.0000,0
3642.2720,0.0000,-3.0000,-1.0000,0.0000,-2.0000,-1.0000,0.0000,-1.0000,0
3647.2720,-3.0000,-1.0000,-4.0000,-3.0000,1.0000,-2.0000,0.0000,0.0000,0
3652.2720,0.0000,-1.0000,0.0000,0.0000,-2.0000,-3.0000,1.0000,-1.0000,0
3657.2720,-3.0000,-1.0000,0.0000,-2.0000,-1.0000,-1.0000,-2.0000,-3.0000,0
3662.2720,-2.0000,-1.0000,-1.0000,-3.0000,1.0000,1.0000,-4.0000,0.0000,0
3667.2720,1.0000,-1.0000,-2.0000,-1.0000,-3.0000,-1.0000,0.0000,-1.0000,0
3672.2720,-1.0000,1.0000,4.0000,3.0000,-1.0000,2.0000,2.0000,-2.0000,0
3677.2720,-1.0000,-3.0000,-1.0000,-2.0000,0.0000,-2.0000,0.0000,0.0000,0
3682.2720,-3.0000,-3.0000,0.0000,-1.0000,1.0000,1.0000,-1.0000,1.0000,0
3687.2720,0.0000,-1.0000,-2.0000,-3.0000,1.0000,2.0000,-1.0000,-1.0000,0
3692.2800,0.0000,0.0000,0.0000,0.0000,-1.0000,0.0000,-1.0000,0.0000,0
3697.2800,0.0000,3.0000,0.0000,3.0000,1.0000,-2.0000,0.0000,1.0000,0
3702.2800,2.0000,0.0000,-1.0000,-5.0000,-1.0000,0.0000,0.0000,-1.0000,0
3707.2800,-2.0000,-1.0000,-2.0000,0.0000,1.0000,1.0000,-1.0000,-2.0000,0
3712.2800,0.0000,-1.0000,-1.0000,0.0000,-1.0000,-1.0000,1.0000,0.0000,0
3717.2800,-4.0000,-4.0000,-2.0000,1.0000,-1.0000,-1.0000,-2.0000,-1.0000,0
3722.2800,-1.0000,-3.0000,0.0000,1.0000,-3.0000,0.0000,-2.0000,-3.0000,0
3727.2800,3.0000,-1.0000,1.0000,0.0000,1.0000,0.0000,-2.0000,-2.0000,0
3732.2800,2.0000,1.0000,-1.0000,-3.0000,-2.0000,1.0000,0.0000,-1.0000,0
3737.2800,2.0000,1.0000,-1.0000,-2.0000,-3.0000,0.0000,-1.0000,0.0000,0
3742.2810,-2.0000,-1.0000,-2.0000,0.0000,0.0000,-1.0000,0.0000,0.0000,0
3747.2810,0.0000,-5.0000,-1.0000,0.0000,0.0000,-1.0000,0.0000,-1.0000,0
3752.2810,-2.0000,-2.0000,0.0000,1.0000,-2.0000,-3.0000,0.0000,1.0000,0
3757.2810,-4.0000,2.0000,-1.0000,-1.0000,-1.0000,0.0000,-1.0000,0.0000,0
3762.2810,-5.0000,-1.0000,-4.0000,-4.0000,-1.0000,-1.0000,1.0000,0.0000,0
3767.2810,-2.0000,4.0000,1.0000,1.0000,0.0000,-1.0000,1.0000,1.0000,0
3772.2810,-1.0000,2.0000,-2.0000,0.0000,1.0000,-2.0000,-1.0000,-1.0000,0
3777.2810,-1.0000,-3.0000,-1.0000,-2.0000,1.0000,-3.0000,-1.0000,-2.0000,0
3782.2810,-2.0000,-3.0000,3.0000,1.0000,1.0000,0.0000,0.0000,-1.0000,0
3787.2810,-1.0000,-3.0000,0.0000,-6.0000,-2.0000,-1.0000,0.0000,-2.0000,0
3792.2810,1.0000,-1.0000,-3.0000,1.0000,0.0000,-2.0000,-1.0000,-1.0000,0
3797.2810,2.0000,0.0000,0.0000,-2.0000,2.0000,1.0000,1.0000,-2.0000,0
3802.2810,1.0000,-1.0000,-2.0000,-1.0000,-2.0000,-2.0000,-1.0000,0.0000,0
3807.2810,-3.0000,-2.0000,-1.0000,-3.0000,-2.0000,-3.0000,0.0000,2.0000,0
3812.2810,0.0000,-2.0000,0.0000,-1.0000,0.0000,-2.0000,-1.0000,-2.0000,0
3817.2810,-2.0000,-5.0000,1.0000,1.0000,-2.0000,-2.0000,-1.0000,-3.0000,0
3822.2810,1.0000,2.0000,-3.0000,3.0000,1.0000,-2.0000,-2.0000,-1.0000,0
3827.2810,0.0000,1.0000,0.0000,-2.0000,-1.0000,1.0000,-4.0000,0.0000,0
3832.2810,-1.0000,2.0000,-1.0000,-4.0000,-2.0000,0.0000,0.0000,0.0000,0
3837.2810,-1.0000,-1.0000,1.0000,0.0000,-1.0000,-2.0000,3.0000,0.0000,0
3842.2810,-2.0000,-1.0000,0.0000,2.0000,-2.0000,-1.0000,1.0000,-1.0000,0
3847.2810,0.0000,0.0000,-1.0000,1.0000,-3.0000,-4.0000,0.0000,-1.0000,0
3852.2810,-2.0000,-2.0000,-1.0000,-1.0000,2.0000,0.0000,-2.0000,-1.0000,0
3857.2810,3.0000,-3.0000,-3.0000,-3.0000,-2.0000,0.0000,1.0000,0.0000,0
3862.2810,1.0000,-3.0000,-2.0000,0.0000,1.0000,-1.0000,0.0000,0.0000,0
3867.2810,0.0000,-1.0000,3.0000,0.0000,-1.0000,-3.0000,-1.0000,-4.0000,0
3872.2810,-3.0000,-4.0000,-1.0000,-2.0000,-3.0000,-1.0000,1.0000,-1.0000,0
3877.2810,-3.0000,0.0000,-4.0000,2.0000,-3.0000,0.0000,0.0000,0.0000,0
3882.2810,2.0000,-1.0000,-2.0000,-2.0000,1.0000,1.0000,-1.0000,0.0000,0
3887.2810,2.0000,1.0000,-1.0000,1.0000,-2.0000,0.0000,0.0000,1.0000,0
3892.2810,0.0000,-1.0000,-1.0000,-5.0000,-2.0000,1.0000,-2.0000,-1.0000,0
3897.2810,1.0000,0.0000,-1.0000,-2.0000,0.0000,-1.0000,1.0000,-1.0000,0
3902.2810,-4.0000,-1.0000,-2.0000,-2.0000,-1.0000,-3.0000,3.0000,-4.0000,0
3907.2810,-2.0000,-3.0000,-4.0000,2.0000,-2.0000,0.0000,0.0000,0.0000,0
3912.2810,-3.0000,-3.0000,-1.0000,-2.0000,-2.0000,-2.0000,0.0000,0.0000,0
3917.2810,-1.0000,0.0000,-2.0000,-2.0000,1.0000,-1.0000,-1.0000,1.0000,0
3922.2810,-2.0000,-1.0000,0.0000,0.0000,0.0000,-5.0000,0.0000,-2.0000,0
3927.2810,-3.0000,-2.0000,-2.0000,-1.0000,-1.0000,-4.0000,3.0000,-2.0000,0
3932.2810,-2.0000,2.0000,-3.0000,2.0000,-4.0000,0.0000,-1.0000,-3.0000,0
3937.2810,-3.0000,-2.0000,2.0000,-3.0000,-5.0000,1.0000,-1.0000,-2.0000,0
3942.2810,-2.0000,1.0000,1.0000,1.0000,-1.0000,0.0000,-3.0000,-2.0000,0
3947.2810,1.0000,-1.0000,0.0000,-6.0000,-3.0000,1.0000,0.0000,0.0000,0
3952.2810,1.0000,1.0000,-4.0000,-1.0000,0.0000,-1.0000,3.0000,2.0000,0
3957.2810,3.0000,0.0000,-1.0000,-1.0000,1.0000,1.0000,-1.0000,-2.0000,0
3962.2810,1.0000,0.0000,1.0000,1.0000,-2.0000,2.0000,1.0000,-1.0000,0
3967.2810,-2.0000,-2.0000,0.0000,0.0000,1.0000,2.0000,1.0000,-3.0000,0
3972.2810,-1.0000,-2.0000,0.0000,-2.0000,0.0000,1.0000,-1.0000,0.0000,0
3977.2810,0.0000,1.0000,-1.0000,0.0000,-1.0000,1.0000,-1.0000,0.0000,0
3982.2810,2.0000,-1.0000,3.0000,0.0000,-1.0000,1.0000,1.0000,1.0000,0
3987.2810,-4.0000,1.0000,-3.0000,-1.0000,0.0000,3.0000,-1.0000,1.0000,0
3992.2810,-2.0000,1.0000,-1.0000,-2.0000,-1.0000,-1.0000,0.0000,-1.0000,0
3997.2810,-2.0000,-1.0000,-2.0000,0.0000,-1.0000,2.0000,-1.0000,0.0000,0
4002.2810,-1.0000,-3.0000,-3.0000,-2.0000,-1.0000,0.0000,-5.0000,-1.0000,0
4007.2810,0.0000,-1.0000,-1.0000,2.0000,-2.0000,2.0000,-2.0000,0.0000,0
4012.2810,1.0000,-3.0000,-2.0000,-1.0000,-1.0000,-2.0000,0.0000,0.0000,0
4017.2810,1.0000,1.0000,3.0000,2.0000,0.0000,-2.0000,-1.0000,-2.0000,0
4022.2810,1.0000,0.0000,-1.0000,0.0000,0.0000,-2.0000,-1.0000,-2.0000,0
4027.2870,1.0000,0.0000,1.0000,-2.0000,0.0000,-3.0000,2.0000,1.0000,0
4032.2870,0.0000,-3.0000,0.0000,2.0000,-2.0000,0.0000,0.0000,-1.0000,0
4037.2870,-3.0000,-3.0000,-5.0000,-1.0000,-1.0000,0.0000,1.0000,-1.0000,0
4042.2870,0.0000,0.0000,1.0000,1.0000,-2.0000,-1.0000,0.0000,0.0000,0
4047.2870,-1.0000,-1.0000,-2.0000,3.0000,2.0000,-1.0000,-1.0000,0.0000,0
4052.2870,0.0000,0.0000,-4.0000,-3.0000,-1.0000,1.0000,-2.0000,0.0000,0
4057.2870,1.0000,1.0000,2.0000,2.0000,-1.0000,-2.0000,1.0000,0.0000,0
4062.2870,0.0000,-1.0000,1.0000,-1.0000,1.0000,-2.0000,0.0000,-2.0000,0
4067.2870,1.0000,-1.0000,0.0000,-1.0000,-3.0000,-1.0000,0.0000,-1.0000,0
4072.2870,-1.0000,1.0000,0.0000,-1.0000,-2.0000,1.0000,-2.0000,-1.0000,0
4077.2870,-3.0000,1.0000,-1.0000,-1.0000,0.0000,-2.0000,0.0000,0.0000,0
4082.2870,-1.0000,-1.0000,-4.0000,-1.0000,0.0000,-1.0000,3.0000,0.0000,0
4087.2870,-1.0000,-3.0000,-5.0000,0.0000,0.0000,-1.0000,-3.0000,-2.0000,0
4092.2870,-1.0000,-2.0000,1.0000,-2.0000,-1.0000,-1.0000,1.0000,-1.0000,0
4097.2870,0.0000,-1.0000,-4.0000,2.0000,-1.0000,0.0000,-2.0000,0.0000,0
4102.2870,0.0000,0.0000,1.0000,-1.0000,-1.0000,-1.0000,-1.0000,-1.0000,0
4107.2870,-1.0000,0.0000,-1.0000,-1.0000,1.0000,3.0000,-1.0000,-3.0000,0
4112.2870,-1.0000,-3.0000,-4.0000,-1.0000,0.0000,-2.0000,2.0000,0.0000,0
4117.2870,1.0000,-3.0000,0.0000,-1.0000,0.0000,-1.0000,1.0000,-4.0000,0
4122.2870,2.0000,-3.0000,-1.0000,-2.0000,-4.0000,-2.0000,0.0000,0.0000,0
4127.2910,0.0000,1.0000,0.0000,2.0000,0.0000,-1.0000,-1.0000,-1.0000,0
4132.2910,-1.0000,0.0000,0.0000,1.0000,2.0000,-1.0000,-3.0000,1.0000,0
4137.2910,-2.0000,-1.0000,-3.0000,-4.0000,0.0000,-1.0000,-4.0000,2.0000,0
4142.2910,-2.0000,-3.0000,-2.0000,0.0000,2.0000,0.0000,0.0000,-1.0000,0
4147.2910,-2.0000,2.0000,2.0000,1.0000,-2.0000,1.0000,1.0000,-1.0000,0
4152.2910,-1.0000,1.0000,1.0000,1.0000,-1.0000,-1.0000,0.0000,-3.0000,0
4157.2910,0.0000,-1.0000,-3.0000,-2.0000,-2.0000,-2.0000,0.0000,0.0000,0
4162.2910,0.0000,-1.0000,-4.0000,-1.0000,-1.0000,1.0000,-1.0000,0.0000,0
4167.2910,0.0000,-4.0000,-2.0000,-1.0000,-1.0000,-3.0000,1.0000,-2.0000,0
4172.2910,0.0000,-1.0000,1.0000,1.0000,3.0000,0.0000,-2.0000,1.0000,0
4177.2910,1.0000,1.0000,0.0000,0.0000,-1.0000,-1.0000,0.0000,-1.0000,0
4182.2910,0.0000,-1.0000,-3.0000,-3.0000,-1.0000,-3.0000,-1.0000,0.0000,0
4187.2910,-3.0000,-3.0000,-2.0000,-1.0000,1.0000,-3.0000,1.0000,0.0000,0
4192.2910,0.0000,-3.0000,-2.0000,-2.0000,-2.0000,-1.0000,0.0000,2.0000,0
4197.2910,-2.0000,-4.0000,2.0000,-1.0000,-3.0000,-2.0000,-1.0000,-1.0000,0
4202.2910,-2.0000,-1.0000,0.0000,-1.0000,-1.0000,3.0000,-3.0000,0.0000,0
4207.2910,1.0000,2.0000,2.0000,2.0000,0.0000,0.0000,0.0000,0.0000,0
4212.2910,2.0000,3.0000,-1.0000,-3.0000,-1.0000,0.0000,-2.0000,-3.0000,0
4217.2910,0.0000,1.0000,-3.0000,-1.0000,-2.0000,-2.0000,0.0000,-3.0000,0
4222.2910,-1.0000,-1.0000,-1.0000,-1.0000,-4.0000,-1.0000,0.0000,-2.0000,0
4227.2910,0.0000,-3.0000,-3.0000,-3.0000,-1.0000,-2.0000,-3.0000,0.0000,0
4232.2910,-1.0000,1.0000,2.0000,1.0000,-1.0000,0.0000,1.0000,-1.0000,0
4237.2910,-1.0000,-2.0000,0.0000,0.0000,-1.0000,-1.0000,1.0000,0.0000,0
4242.2910,-1.0000,-1.0000,0.0000,0.0000,-3.0000,-3.0000,-1.0000,0.0000,0
4247.2910,0.0000,-3.0000,-1.0000,-1.0000,-3.0000,-3.0000,-5.0000,0.0000,0
4252.2910,0.0000,0.0000,-1.0000,2.0000,-1.0000,-1.0000,-1.0000,-3.0000,0
4257.2910,0.0000,-1.0000,-3.0000,1.0000,-1.0000,-1.0000,-1.0000,0.0000,0
4262.2910,-2.0000,1.0000,1.0000,0.0000,0.0000,-3.0000,1.0000,-1.0000,0
4267.2910,-2.0000,-1.0000,-1.0000,-2.0000,1.0000,0.0000,-2.0000,1.0000,0
4272.2910,-1.0000,-1.0000,0.0000,0.0000,-4.0000,1.0000,-2.0000,1.0000,0
4285.6620,-2.0000,1.0000,-1.0000,1.0000,-1.0000,3.0000,1.0000,-1.0000,0
4290.6620,0.0000,-2.0000,-3.0000,-3.0000,0.0000,0.0000,-1.0000,0.0000,0
4295.6620,-1.0000,1.0000,3.0000,-2.0000,1.0000,-3.0000,-1.0000,-1.0000,0
4300.6620,-4.0000,-4.0000,-2.0000,-2.0000,-3.0000,-3.0000,0.0000,0.0000,0
4305.6620,2.0000,2.0000,1.0000,2.0000,2.0000,-3.0000,-3.0000,-2.0000,0
4310.6620,-2.0000,-3.0000,-3.0000,-2.0000,-4.0000,2.0000,1.0000,-2.0000,0
4315.6620,0.0000,-2.0000,0.0000,-1.0000,-1.0000,3.0000,2.0000,-2.0000,0
4320.6620,0.0000,2.0000,3.0000,-3.0000,-1.0000,-1.0000,2.0000,2.0000,0
4325.6620,0.0000,0.0000,0.0000,-1.0000,1.0000,3.0000,0.0000,0.0000,0
4330.6620,0.0000,0.0000,-4.0000,0.0000,-3.0000,1.0000,2.0000,-2.0000,0
4335.6620,0.0000,0.0000,1.0000,-1.0000,-4.0000,0.0000,0.0000,-1.0000,0
4340.6620,-1.0000,-4.0000,-1.0000,1.0000,2.0000,-2.0000,-3.0000,-1.0000,0
4345.6620,-1.0000,0.0000,-1.0000,-1.0000,-1.0000,-3.0000,-2.0000,-1.0000,0
4350.6620,-2.0000,0.0000,0.0000,-1.0000,-1.0000,-3.0000,-3.0000,1.0000,0
4355.6620,-1.0000,-1.0000,-2.0000,3.0000,0.0000,0.0000,0.0000,0.0000,0
4360.6620,0.0000,2.0000,-2.0000,0.0000,1.0000,0.0000,0.0000,-4.0000,0
4365.6620,0.0000,1.0000,0.0000,1.0000,1.0000,-2.0000,3.0000,1.0000,0
4370.6620,0.0000,-2.0000,-3.0000,-2.0000,-3.0000,-2.0000,-1.0000,1.0000,0
4375.6620,-2.0000,-2.0000,3.0000,-3.0000,2.0000,-4.0000,-3.0000,-3.0000,0
4380.6620,-1.0000,-3.0000,3.0000,-1.0000,-3.0000,0.0000,-2.0000,0.0000,0
4385.6620,0.0000,-3.0000,-4.0000,-1.0000,-1.0000,1.0000,0.0000,-2.0000,0
4390.6620,-3.0000,-2.0000,-2.0000,0.0000,0.0000,-2.0000,0.0000,0.0000,0
4395.6620,1.0000,3.0000,-1.0000,-1.0000,3.0000,0.0000,2.0000,1.0000,0
4400.6620,-2.0000,-2.0000,-3.0000,0.0000,1.0000,0.0000,1.0000,-2.0000,0
4405.6620,-1.0000,2.0000,1.0000,0.0000,0.0000,-1.0000,-2.0000,-2.0000,0
4410.6620,0.0000,-1.0000,1.0000,-3.0000,-1.0000,-2.0000,2.0000,-2.0000,0
4415.6620,1.0000,0.0000,-3.0000,2.0000,-2.0000,-3.0000,-3.0000,-1.0000,0
4420.6620,-2.0000,0.0000,-2.0000,-2.0000,-2.0000,1.0000,1.0000,0.0000,0
4425.6620,1.0000,-1.0000,0.0000,-2.0000,-3.0000,1.0000,0.0000,-2.0000,0
4430.6620,1.0000,-2.0000,-2.0000,-1.0000,2.0000,0.0000,-2.0000,0.0000,0
4435.6620,-2.0000,-2.0000,0.0000,2.0000,0.0000,-1.0000,0.0000,1.0000,0
4440.6620,-1.0000,-3.0000,-2.0000,-1.0000,-2.0000,-1.0000,0.0000,-1.0000,0
4445.6620,-1.0000,0.0000,-3.0000,-2.0000,0.0000,0.0000,-1.0000,-3.0000,0
4450.6620,-1.0000,1.0000,1.0000,0.0000,-3.0000,1.0000,1.0000,-2.0000,0
4455.6620,0.0000,0.0000,-2.0000,-2.0000,-1.0000,-4.0000,0.0000,-1.0000,0
4460.6620,-1.0000,-1.0000,-1.0000,-1.0000,-3.0000,0.0000,0.0000,0.0000,0
4465.6620,-2.0000,1.0000,5.0000,-2.0000,0.0000,-2.0000,-1.0000,0.0000,0
4470.6620,-1.0000,0.0000,1.0000,1.0000,1.0000,-1.0000,-2.0000,-2.0000,0
4475.6620,-3.0000,-2.0000,-2.0000,-2.0000,-1.0000,-1.0000,0.0000,0.0000,0
4480.6620,-1.0000,3.0000,0.0000,-2.0000,1.0000,-2.0000,1.0000,-1.0000,0
4485.6620,-3.0000,-2.0000,-3.0000,2.0000,2.0000,-2.0000,-1.0000,0.0000,0
4490.6620,-1.0000,-1.0000,-2.0000,-2.0000,-1.0000,-1.0000,3.0000,-1.0000,0
4495.6620,0.0000,-2.0000,1.0000,0.0000,-2.0000,0.0000,-2.0000,-2.0000,0
4500.6620,2.0000,-3.0000,-3.0000,-1.0000,0.0000,-1.0000,-2.0000,-3.0000,0
4505.6620,1.0000,0.0000,-2.0000,-2.0000,0.0000,0.0000,-3.0000,0.0000,0
4510.6620,-3.0000,1.0000,0.0000,0.0000,1.0000,0.0000,1.0000,1.0000,0
4515.6620,-2.0000,-2.0000,-4.0000,-4.0000,1.0000,0.0000,1.0000,-2.0000,0
4520.6620,-1.0000,0.0000,2.0000,1.0000,2.0000,-1.0000,0.0000,-1.0000,0
4525.6630,2.0000,0.0000,2.0000,3.0000,0.0000,0.0000,-1.0000,-2.0000,0
4530.6630,0.0000,0.0000,-2.0000,0.0000,-2.0000,-3.0000,-3.0000,1.0000,0
4535.6630,0.0000,-2.0000,-5.0000,-3.0000,-3.0000,1.0000,-2.0000,0.0000,0
4540.6630,0.0000,-2.0000,-6.0000,0.0000,0.0000,2.0000,-2.0000,0.0000,0
4545.6630,-1.0000,-4.0000,3.0000,-3.0000,-1.0000,0.0000,0.0000,-3.0000,0
4550.6630,0.0000,-1.0000,0.0000,-2.0000,-1.0000,0.0000,1.0000,1.0000,0
4555.6630,0.0000,-1.0000,0.0000,1.0000,-2.0000,0.0000,0.0000,0.0000,0
4560.6630,0.0000,-1.0000,1.0000,1.0000,-1.0000,-1.0000,0.0000,0.0000,0
4565.6630,-2.0000,2.0000,0.0000,0.0000,-1.0000,-2.0000,2.0000,0.0000,0
4570.6630,0.0000,1.0000,-1.0000,0.0000,-4.0000,0.0000,0.0000,-1.0000,0
4575.6630,-1.0000,1.0000,2.0000,-2.0000,0.0000,2.0000,-1.0000,0.0000,0
4580.6630,-3.0000,-3.0000,-2.0000,1.0000,-1.0000,-1.0000,0.0000,-1.0000,0
4585.6630,-3.0000,-3.0000,-2.0000,0.0000,2.0000,-1.0000,0.0000,-4.0000,0
4590.6630,0.0000,0.0000,0.0000,-3.0000,-1.0000,0.0000,-2.0000,-1.0000,0
4595.6630,0.0000,2.0000,-3.0000,1.0000,-2.0000,-2.0000,1.0000,0.0000,0
4600.6630,0.0000,-1.0000,-4.0000,-3.0000,-3.0000,0.0000,-1.0000,-2.0000,0
4605.6630,-1.0000,0.0000,-3.0000,-1.0000,-4.0000,2.0000,2.0000,0.0000,0
4610.6630,1.0000,-2.0000,-1.0000,-1.0000,-1.0000,2.0000,-2.0000,-2.0000,0
4615.6630,0.0000,-4.0000,-2.0000,-1.0000,0.0000,-2.0000,-1.0000,-2.0000,0
4620.6670,1.0000,1.0000,4.0000,3.0000,-1.0000,-1.0000,-2.0000,0.0000,0
4625.6670,-1.0000,-3.0000,-2.0000,-4.0000,-3.0000,0.0000,-1.0000,-1.0000,0
4630.6670,0.0000,0.0000,0.0000,0.0000,1.0000,0.0000,1.0000,-1.0000,0
4635.6670,0.0000,-2.0000,-4.0000,-2.0000,-2.0000,-1.0000,1.0000,0.0000,0
4640.6670,-2.0000,-3.0000,0.0000,2.0000,1.0000,-3.0000,0.0000,1.0000,0
4645.6670,1.0000,3.0000,0.0000,2.0000,-3.0000,-2.0000,-1.0000,1.0000,0
4650.6670,-2.0000,-1.0000,-1.0000,-2.0000,0.0000,-2.0000,0.0000,0.0000,0
4655.6670,-1.0000,1.0000,2.0000,-2.0000,-1.0000,-1.0000,-1.0000,-1.0000,0
4660.6670,-4.0000,-2.0000,-1.0000,-2.0000,-1.0000,0.0000,-3.0000,0.0000,0
4665.6670,0.0000,-2.0000,-1.0000,-3.0000,-4.0000,-2.0000,-1.0000,0.0000,0
4670.6670,1.0000,0.0000,-2.0000,1.0000,1.0000,0.0000,0.0000,-1.0000,0
4675.6670,0.0000,1.0000,0.0000,0.0000,0.0000,-4.0000,1.0000,-1.0000,0
4680.6670,-1.0000,1.0000,-1.0000,-4.0000,-1.0000,-1.0000,1.0000,-2.0000,0
4685.6670,-2.0000,-3.0000,-2.0000,-1.0000,0.0000,0.0000,1.0000,0.0000,0
4690.6670,1.0000,-1.0000,0.0000,-3.0000,0.0000,0.0000,1.0000,-1.0000,0
4695.6670,-3.0000,0.0000,0.0000,-1.0000,2.0000,2.0000,0.0000,-1.0000,0
4700.6670,-1.0000,-1.0000,-3.0000,-1.0000,-2.0000,0.0000,-1.0000,0.0000,0
4705.6670,-1.0000,-1.0000,-4.0000,-2.0000,-2.0000,0.0000,-2.0000,1.0000,0
4710.6670,-1.0000,0.0000,2.0000,-1.0000,0.0000,-1.0000,-1.0000,-2.0000,0
4715.6670,1.0000,-2.0000,1.0000,1.0000,-2.0000,1.0000,0.0000,-3.0000,0
4720.6670,-4.0000,-2.0000,-2.0000,-2.0000,-2.0000,2.0000,-1.0000,-1.0000,0
4725.6670,-2.0000,-2.0000,-3.0000,-1.0000,-1.0000,0.0000,-3.0000,-1.0000,0
4730.6670,-4.0000,-2.0000,-5.0000,-3.0000,-4.0000,-1.0000,0.0000,0.0000,0
4735.6670,-1.0000,0.0000,0.0000,3.0000,0.0000,0.0000,-1.0000,0.0000,0
4740.6670,1.0000,0.0000,2.0000,-1.0000,-1.0000,-2.0000,4.0000,0.0000,0
4745.6670,0.0000,-1.0000,-2.0000,-3.0000,-4.0000,0.0000,1.0000,-1.0000,0
4750.6670,-2.0000,-2.0000,-1.0000,1.0000,0.0000,0.0000,-2.0000,-1.0000,0
4755.6670,-1.0000,0.0000,1.0000,-2.0000,-1.0000,-1.0000,-1.0000,-1.0000,0
4760.6670,3.0000,-2.0000,-2.0000,-1.0000,-4.0000,-1.0000,-1.0000,0.0000,0
4765.6670,1.0000,0.0000,2.0000,2.0000,3.0000,-1.0000,1.0000,1.0000,0
4770.6670,1.0000,2.0000,1.0000,-2.0000,0.0000,-3.0000,1.0000,-2.0000,0
4775.6670,0.0000,-2.0000,-4.0000,-3.0000,-3.0000,-1.0000,-1.0000,0.0000,0
4780.6670,-2.0000,-1.0000,-3.0000,3.0000,0.0000,1.0000,2.0000,1.0000,0
4785.6670,-3.0000,-2.0000,2.0000,-2.0000,0.0000,0.0000,0.0000,0.0000,0
4790.6670,0.0000,-1.0000,-1.0000,1.0000,-2.0000,0.0000,1.0000,-3.0000,0
4795.6670,0.0000,-3.0000,0.0000,-1.0000,-1.0000,-3.0000,1.0000,0.0000,0
4800.6670,1.0000,2.0000,1.0000,-1.0000,1.0000,-1.0000,0.0000,-1.0000,0
4805.6670,-2.0000,-2.0000,-5.0000,-4.0000,-6.0000,0.0000,-2.0000,-2.0000,0
4810.6670,0.0000,1.0000,0.0000,2.0000,-2.0000,2.0000,-4.0000,1.0000,0
4815.6670,-1.0000,3.0000,-1.0000,0.0000,0.0000,1.0000,-2.0000,-1.0000,0
4820.6670,-2.0000,-1.0000,-4.0000,-3.0000,-1.0000,-1.0000,-2.0000,-1.0000,0
4825.6670,0.0000,-1.0000,0.0000,-1.0000,1.0000,0.0000,3.0000,-2.0000,0
4830.6670,0.0000,-2.0000,-3.0000,-1.0000,-1.0000,1.0000,0.0000,-1.0000,0
4835.6670,1.0000,-2.0000,-1.0000,4.0000,-1.0000,2.0000,0.0000,0.0000,0
4840.6670,0.0000,-2.0000,-1.0000,-1.0000,0.0000,-1.0000,-2.0000,-1.0000,0
4845.6670,-1.0000,0.0000,-1.0000,1.0000,1.0000,-4.0000,-2.0000,0.0000,0
4850.6670,-1.0000,-1.0000,2.0000,-1.0000,0.0000,0.0000,-1.0000,1.0000,0
4855.6670,-1.0000,0.0000,-4.0000,-3.0000,1.0000,-1.0000,-2.0000,0.0000,0
4860.6670,-1.0000,0.0000,0.0000,-3.0000,-2.0000,1.0000,-2.0000,-1.0000,0
4865.6670,0.0000,1.0000,1.0000,4.0000,3.0000,0.0000,-2.0000,0.0000,0
4870.6670,-1.0000,-1.0000,0.0000,-1.0000,-2.0000,0.0000,1.0000,0.0000,0
4875.6670,0.0000,-1.0000,-3.0000,-2.0000,-1.0000,-3.0000,-2.0000,0.0000,0
4880.6670,-1.0000,1.0000,-3.0000,-2.0000,-2.0000,-2.0000,-1.0000,-2.0000,0
4885.6670,-2.0000,1.0000,-2.0000,0.0000,1.0000,-1.0000,-1.0000,0.0000,0
4890.6670,0.0000,0.0000,-2.0000,-2.0000,1.0000,-1.0000,-2.0000,-1.0000,0
4895.6670,0.0000,-3.0000,-1.0000,-1.0000,-4.0000,1.0000,1.0000,-1.0000,0
4900.6670,2.0000,1.0000,2.0000,2.0000,1.0000,3.0000,0.0000,-1.0000,0
4905.6670,1.0000,-2.0000,-1.0000,0.0000,-1.0000,-1.0000,-1.0000,0.0000,0
4910.6670,-2.0000,-1.0000,-2.0000,-1.0000,3.0000,-3.0000,0.0000,-2.0000,0
4915.6670,-2.0000,-2.0000,1.0000,-2.0000,1.0000,0.0000,0.0000,0.0000,0
4920.6670,-3.0000,-4.0000,-1.0000,0.0000,-3.0000,-1.0000,-2.0000,-1.0000,0
4925.6670,-2.0000,0.0000,0.0000,-3.0000,-3.0000,0.0000,1.0000,1.0000,0
4930.6670,-3.0000,-1.0000,-5.0000,0.0000,-4.0000,1.0000,0.0000,-1.0000,0
4935.6670,-2.0000,0.0000,0.0000,2.0000,0.0000,1.0000,1.0000,0.0000,0
4940.6670,-3.0000,-2.0000,0.0000,0.0000,1.0000,-1.0000,1.0000,0.0000,0
4945.6670,-1.0000,-2.0000,-2.0000,-2.0000,-3.0000,-1.0000,-2.0000,-1.0000,0
4950.6670,-1.0000,-1.0000,0.0000,0.0000,2.0000,-3.0000,-2.0000,0.0000,0
4955.6670,-1.0000,2.0000,1.0000,0.0000,2.0000,-2.0000,0.0000,-1.0000,0
4960.6670,0.0000,0.0000,1.0000,2.0000,2.0000,-1.0000,0.0000,-1.0000,0
4965.6670,0.0000,-2.0000,-3.0000,-2.0000,-1.0000,-1.0000,0.0000,-1.0000,0
4970.6670,1.0000,-1.0000,0.0000,0.0000,-4.0000,0.0000,-1.0000,1.0000,0
4975.6670,-2.0000,1.0000,-3.0000,-2.0000,-4.0000,0.0000,-2.0000,0.0000,0
4980.6670,1.0000,1.0000,-2.0000,-2.0000,0.0000,-1.0000,-2.0000,1.0000,0
4985.6670,0.0000,1.0000,2.0000,2.0000,3.0000,-4.0000,0.0000,0.0000,0
4990.6670,-1.0000,-4.0000,-2.0000,-1.0000,-1.0000,-9.0000,-3.0000,-1.0000,0
4995.6670,0.0000,-2.0000,1.0000,0.0000,0.0000,-9.0000,-1.0000,0.0000,0
5000.6710,-1.0000,-3.0000,-2.0000,0.0000,-3.0000,-2.0000,1.0000,0.0000,0
5005.6710,-1.0000,2.0000,0.0000,-1.0000,1.0000,3.0000,0.0000,-1.0000,0
5010.6710,-1.0000,1.0000,-4.0000,-2.0000,1.0000,6.0000,0.0000,-1.0000,0
5015.6710,0.0000,-1.0000,2.0000,-3.0000,-4.0000,4.0000,1.0000,0.0000,0
5020.6710,2.0000,-1.0000,1.0000,0.0000,2.0000,4.0000,1.0000,-2.0000,0
5025.6710,0.0000,-2.0000,-3.0000,0.0000,1.0000,1.0000,1.0000,0.0000,0
5030.6710,1.0000,-3.0000,-2.0000,-1.0000,1.0000,-1.0000,0.0000,-2.0000,0
5035.6710,-1.0000,-2.0000,0.0000,-1.0000,1.0000,4.0000,-2.0000,-1.0000,0
5040.6710,-1.0000,2.0000,-1.0000,-3.0000,-2.0000,2.0000,2.0000,-1.0000,0
5045.6710,1.0000,-1.0000,-1.0000,-2.0000,-1.0000,3.0000,0.0000,0.0000,0
5050.6710,1.0000,-2.0000,1.0000,-1.0000,1.0000,2.0000,-1.0000,-1.0000,0
5055.6710,0.0000,-3.0000,-3.0000,4.0000,-2.0000,1.0000,0.0000,0.0000,0
5060.6710,-2.0000,-4.0000,-4.0000,-2.0000,-2.0000,1.0000,-1.0000,0.0000,0
5065.6710,0.0000,2.0000,-1.0000,-1.0000,1.0000,-1.0000,-1.0000,1.0000,0
5070.6710,-2.0000,0.0000,0.0000,2.0000,0.0000,-2.0000,-1.0000,0.0000,0
5075.6710,-1.0000,3.0000,-1.0000,-1.0000,1.0000,0.0000,-1.0000,-1.0000,0
5080.6710,-1.0000,0.0000,3.0000,1.0000,-3.0000,-2.0000,0.0000,0.0000,0
5085.6710,-1.0000,-2.0000,-1.0000,1.0000,-3.0000,-1.0000,-2.0000,0.0000,0
5090.6710,-1.0000,1.0000,0.0000,-3.0000,-4.0000,1.0000,1.0000,-1.0000,0
5095.6710,-2.0000,-3.0000,0.0000,0.0000,-3.0000,1.0000,0.0000,-3.0000,0
5100.6710,1.0000,0.0000,-2.0000,-4.0000,-1.0000,1.0000,-1.0000,-1.0000,0
5105.6710,0.0000,-5.0000,-2.0000,3.0000,0.0000,-1.0000,-3.0000,-3.0000,0
5110.6710,0.0000,0.0000,1.0000,-2.0000,-1.0000,-2.0000,-1.0000,0.0000,0
5115.6710,0.0000,-1.0000,-2.0000,0.0000,-2.0000,-3.0000,0.0000,-1.0000,0
5120.6710,-1.0000,-3.0000,-3.0000,3.0000,2.0000,-5.0000,1.0000,-1.0000,0
5125.6710,-2.0000,-1.0000,0.0000,-4.0000,-3.0000,1.0000,-1.0000,-3.0000,0
5130.6710,1.0000,1.0000,1.0000,4.0000,1.0000,-3.0000,2.0000,0.0000,0
5135.6710,-1.0000,-1.0000,-1.0000,-3.0000,-3.0000,-6.0000,-4.0000,-2.0000,0
5140.6710,1.0000,1.0000,-1.0000,-3.0000,1.0000,-3.0000,1.0000,0.0000,0
5145.6710,-1.0000,-2.0000,-3.0000,1.0000,0.0000,-3.0000,2.0000,0.0000,0
5150.6710,-3.0000,-2.0000,-1.0000,-2.0000,-1.0000,0.0000,1.0000,-1.0000,0
5155.6710,-1.0000,0.0000,-3.0000,-1.0000,-3.0000,1.0000,1.0000,-1.0000,0
5160.6710,0.0000,3.0000,3.0000,1.0000,1.0000,1.0000,-3.0000,-1.0000,0
5165.6710,-1.0000,-1.0000,0.0000,-2.0000,1.0000,-1.0000,0.0000,1.0000,0
5170.6710,0.0000,-1.0000,-5.0000,-3.0000,-1.0000,0.0000,0.0000,-1.0000,0
5175.6710,-1.0000,-4.0000,-2.0000,-1.0000,1.0000,0.0000,-2.0000,-1.0000,0
5180.6710,-2.0000,-1.0000,-2.0000,-2.0000,1.0000,-3.0000,-4.0000,-1.0000,0
5185.6710,1.0000,1.0000,0.0000,-1.0000,-2.0000,-4.0000,-3.0000,-2.0000,0
5190.6710,-1.0000,1.0000,2.0000,-2.0000,-3.0000,-3.0000,-2.0000,-1.0000,0
5195.6710,-2.0000,0.0000,0.0000,1.0000,3.0000,0.0000,3.0000,0.0000,0
5200.6720,-1.0000,-2.0000,-1.0000,-2.0000,1.0000,5.0000,0.0000,-2.0000,0
5215.6910,-2.0000,-2.0000,0.0000,-2.0000,1.0000,0.0000,1.0000,0.0000,0
5220.6910,-1.0000,0.0000,1.0000,3.0000,2.0000,2.0000,-2.0000,0.0000,0
5225.6910,3.0000,1.0000,0.0000,-1.0000,-2.0000,0.0000,0.0000,-1.0000,0
5230.6910,-1.0000,0.0000,-1.0000,0.0000,1.0000,-4.0000,-3.0000,0.0000,0
5235.6910,-1.0000,0.0000,-1.0000,0.0000,1.0000,-4.0000,-3.0000,0.0000,0
5240.6910,-1.0000,-3.0000,-2.0000,-5.0000,1.0000,-6.0000,-3.0000,1.0000,0
5245.6910,0.0000,0.0000,-3.0000,2.0000,-2.0000,-4.0000,0.0000,-1.0000,0
5250.6910,-1.0000,1.0000,1.0000,0.0000,0.0000,-1.0000,-2.0000,-1.0000,0
5255.6910,0.0000,-1.0000,1.0000,-2.0000,-1.0000,-1.0000,1.0000,-1.0000,0
5260.6910,-2.0000,0.0000,0.0000,0.0000,0.0000,-2.0000,3.0000,-1.0000,0
5265.6910,-1.0000,-1.0000,2.0000,-4.0000,-2.0000,0.0000,-2.0000,0.0000,0
5270.6910,0.0000,1.0000,1.0000,1.0000,-3.0000,-2.0000,-1.0000,-1.0000,0
5275.6910,1.0000,-2.0000,0.0000,0.0000,0.0000,1.0000,0.0000,-1.0000,0
5280.6910,1.0000,-1.0000,-1.0000,3.0000,-1.0000,0.0000,-2.0000,0.0000,0
5285.6910,-1.0000,2.0000,2.0000,1.0000,-1.0000,-1.0000,-3.0000,0.0000,0
5290.6910,-1.0000,-2.0000,-2.0000,0.0000,-2.0000,1.0000,2.0000,0.0000,0
5295.6910,-1.0000,1.0000,1.0000,-2.0000,3.0000,5.0000,-1.0000,-1.0000,0
5300.6910,1.0000,-1.0000,-1.0000,-2.0000,-1.0000,4.0000,0.0000,0.0000,0
5305.6910,-2.0000,-1.0000,-2.0000,1.0000,2.0000,5.0000,1.0000,-2.0000,0
5310.6910,0.0000,-1.0000,2.0000,-1.0000,-2.0000,3.0000,-2.0000,0.0000,0
5315.6910,-1.0000,-3.0000,-1.0000,1.0000,1.0000,-2.0000,-1.0000,1.0000,0
5320.6910,0.0000,-1.0000,0.0000,2.0000,-1.0000,-3.0000,-2.0000,1.0000,0
5325.6910,0.0000,-2.0000,-1.0000,-2.0000,-1.0000,-3.0000,1.0000,0.0000,0
5330.6910,0.0000,0.0000,-4.0000,0.0000,-3.0000,-2.0000,0.0000,-1.0000,0
5335.6910,0.0000,-1.0000,-1.0000,0.0000,-1.0000,-3.0000,-2.0000,-1.0000,0
5340.6910,0.0000,-2.0000,-1.0000,0.0000,-3.0000,-4.0000,-1.0000,-1.0000,0
5345.6910,-1.0000,-1.0000,-2.0000,0.0000,-2.0000,-5.0000,-3.0000,-1.0000,0
5350.6910,0.0000,1.0000,1.0000,-2.0000,0.0000,-3.0000,0.0000,-1.0000,0
5355.6910,-1.0000,2.0000,1.0000,0.0000,-3.0000,-2.0000,2.0000,-2.0000,0
5360.6920,-1.0000,-2.0000,-3.0000,-1.0000,0.0000,-1.0000,-1.0000,-1.0000,0
5365.6920,2.0000,1.0000,-3.0000,-2.0000,-3.0000,-1.0000,-1.0000,-2.0000,0
5370.6920,0.0000,-1.0000,-2.0000,-2.0000,0.0000,-2.0000,-2.0000,0.0000,0
5375.6920,-2.0000,-1.0000,-3.0000,0.0000,-3.0000,-2.0000,-2.0000,0.0000,0
5380.6920,-2.0000,0.0000,-1.0000,0.0000,1.0000,-5.0000,0.0000,-1.0000,0
5385.6920,1.0000,0.0000,0.0000,1.0000,1.0000,-2.0000,-1.0000,0.0000,0
5390.6920,1.0000,0.0000,1.0000,1.0000,0.0000,1.0000,0.0000,0.0000,0
5395.6920,-1.0000,0.0000,-2.0000,2.0000,-1.0000,-4.0000,0.0000,-1.0000,0
5400.6920,-1.0000,-2.0000,-3.0000,-5.0000,-1.0000,-4.0000,-4.0000,0.0000,0
5405.6920,-3.0000,-4.0000,-4.0000,-1.0000,0.0000,-2.0000,1.0000,-2.0000,0
5410.6920,0.0000,0.0000,1.0000,3.0000,1.0000,-2.0000,0.0000,-3.0000,0
5415.6920,0.0000,-2.0000,-2.0000,-2.0000,0.0000,0.0000,1.0000,0.0000,0
5420.6920,0.0000,-1.0000,0.0000,3.0000,-1.0000,-1.0000,0.0000,-2.0000,0
5425.6920,0.0000,1.0000,1.0000,0.0000,-2.0000,0.0000,1.0000,-1.0000,0
5430.6920,-1.0000,0.0000,-2.0000,-2.0000,1.0000,0.0000,-1.0000,-1.0000,0
5435.6920,-2.0000,-1.0000,2.0000,-2.0000,-2.0000,-2.0000,2.0000,0.0000,0
5440.6920,-3.0000,-4.0000,1.0000,0.0000,0.0000,-3.0000,-2.0000,1.0000,0
5445.6920,-1.0000,0.0000,-2.0000,-2.0000,0.0000,2.0000,-2.0000,0.0000,0
5450.6920,-2.0000,-2.0000,-4.0000,1.0000,-1.0000,0.0000,1.0000,1.0000,0
5455.6920,1.0000,0.0000,0.0000,0.0000,1.0000,1.0000,0.0000,-3.0000,0
5460.6920,1.0000,1.0000,-1.0000,-1.0000,0.0000,1.0000,2.0000,1.0000,0
5465.6920,0.0000,-2.0000,-5.0000,1.0000,-4.0000,-2.0000,0.0000,-2.0000,0
5470.6920,-3.0000,-1.0000,-1.0000,-1.0000,-3.0000,-4.0000,-2.0000,0.0000,0
5475.6920,-2.0000,1.0000,-2.0000,-3.0000,-1.0000,0.0000,-1.0000,-1.0000,0
5480.6920,0.0000,-1.0000,0.0000,1.0000,-3.0000,1.0000,0.0000,-1.0000,0
5485.6920,1.0000,0.0000,3.0000,0.0000,-1.0000,1.0000,0.0000,-2.0000,0
5490.6920,0.0000,0.0000,-1.0000,-1.0000,1.0000,-1.0000,-1.0000,-1.0000,0
5495.6920,-2.0000,-1.0000,-2.0000,-3.0000,0.0000,-3.0000,-1.0000,-3.0000,0
5500.6920,0.0000,-1.0000,-1.0000,-2.0000,-1.0000,2.0000,-4.0000,-3.0000,0
5505.6920,0.0000,-1.0000,-3.0000,-1.0000,0.0000,0.0000,-3.0000,0.0000,0
5510.6920,0.0000,2.0000,2.0000,1.0000,-3.0000,0.0000,2.0000,0.0000,0
5515.6920,-1.0000,1.0000,2.0000,0.0000,-2.0000,2.0000,0.0000,2.0000,0
5520.6920,-2.0000,-1.0000,-2.0000,-1.0000,1.0000,-2.0000,1.0000,1.0000,0
5525.6920,-2.0000,-1.0000,0.0000,-1.0000,1.0000,-1.0000,3.0000,0.0000,0
5530.6920,-1.0000,-5.0000,-3.0000,2.0000,2.0000,2.0000,-1.0000,-1.0000,0
5535.6920,1.0000,-2.0000,-4.0000,-2.0000,-2.0000,-2.0000,-3.0000,2.0000,0
5540.6920,1.0000,0.0000,-1.0000,1.0000,-1.0000,1.0000,1.0000,0.0000,0
5545.6920,-1.0000,1.0000,4.0000,0.0000,-2.0000,-1.0000,-1.0000,-1.0000,0
5550.6920,-1.0000,0.0000,0.0000,-2.0000,1.0000,-1.0000,-1.0000,-3.0000,0
5555.6920,-1.0000,0.0000,-2.0000,-2.0000,1.0000,0.0000,-2.0000,-1.0000,0
5560.6920,-3.0000,1.0000,-1.0000,-1.0000,-1.0000,1.0000,-2.0000,0.0000,0
5565.6920,0.0000,-1.0000,-2.0000,0.0000,-1.0000,0.0000,-2.0000,0.0000,0
5570.6920,0.0000,-2.0000,0.0000,0.0000,0.0000,1.0000,-1.0000,-1.0000,0
5575.6920,-1.0000,-2.0000,-4.0000,0.0000,-3.0000,-2.0000,1.0000,0.0000,0
5580.6920,-1.0000,-1.0000,-1.0000,0.0000,-1.0000,0.0000,2.0000,-1.0000,0
5585.6920,-1.0000,0.0000,1.0000,0.0000,-1.0000,0.0000,1.0000,-1.0000,0
5590.6920,-2.0000,-3.0000,0.0000,-5.0000,-3.0000,0.0000,0.0000,-1.0000,0
5595.6920,0.0000,0.0000,-1.0000,0.0000,1.0000,-1.0000,-3.0000,-2.0000,0
5600.6920,1.0000,4.0000,2.0000,-4.0000,0.0000,-2.0000,-3.0000,0.0000,0
5605.6920,-1.0000,-1.0000,-1.0000,-2.0000,-3.0000,-1.0000,-2.0000,0.0000,0
5610.6920,-1.0000,-3.0000,-5.0000,3.0000,0.0000,0.0000,-4.0000,0.0000,0
5615.6920,-1.0000,-1.0000,-1.0000,-1.0000,-4.0000,1.0000,0.0000,-1.0000,0
5620.6920,-1.0000,-3.0000,-4.0000,-1.0000,0.0000,0.0000,-2.0000,-3.0000,0
5625.6920,0.0000,-1.0000,-1.0000,-1.0000,0.0000,0.0000,-1.0000,-3.0000,0
5630.6920,-1.0000,0.0000,0.0000,-1.0000,-1.0000,-2.0000,-1.0000,0.0000,0
5635.6920,0.0000,2.0000,0.0000,0.0000,1.0000,0.0000,-1.0000,-1.0000,0
5640.6920,0.0000,-1.0000,2.0000,2.0000,-2.0000,-1.0000,-2.0000,-3.0000,0
5645.6920,0.0000,-1.0000,-2.0000,-1.0000,-3.0000,-3.0000,1.0000,0.0000,0
5650.6920,0.0000,1.0000,-1.0000,2.0000,-1.0000,0.0000,-1.0000,0.0000,0
5655.6920,-2.0000,1.0000,-1.0000,0.0000,1.0000,0.0000,0.0000,0.0000,0
5660.6920,1.0000,-1.0000,1.0000,-1.0000,-1.0000,-1.0000,0.0000,0.0000,0
5665.6920,-2.0000,0.0000,2.0000,0.0000,2.0000,0.0000,-1.0000,0.0000,0
5670.6920,-2.0000,-1.0000,0.0000,-3.0000,-2.0000,-1.0000,0.0000,2.0000,0
5675.6920,-1.0000,-2.0000,-2.0000,0.0000,-1.0000,-2.0000,-1.0000,-2.0000,0
5680.6920,0.0000,0.0000,-3.0000,-1.0000,-3.0000,-1.0000,0.0000,-1.0000,0
5685.6920,0.0000,-1.0000,3.0000,0.0000,-1.0000,-1.0000,-4.0000,-1.0000,0
5690.6920,0.0000,-2.0000,1.0000,-1.0000,-1.0000,0.0000,-2.0000,1.0000,0
5695.6920,0.0000,-4.0000,-1.0000,0.0000,-3.0000,-2.0000,0.0000,0.0000,0
5700.6920,-2.0000,-3.0000,-2.0000,0.0000,-2.0000,1.0000,2.0000,0.0000,0
5705.6920,-1.0000,0.0000,-3.0000,0.0000,-2.0000,0.0000,-1.0000,0.0000,0
5710.6920,0.0000,1.0000,0.0000,1.0000,4.0000,-3.0000,3.0000,-1.0000,0
5715.6920,1.0000,0.0000,-1.0000,1.0000,-2.0000,-2.0000,-2.0000,1.0000,0
5720.6920,-1.0000,1.0000,0.0000,0.0000,1.0000,-2.0000,1.0000,-2.0000,0
5725.6930,0.0000,-2.0000,-2.0000,-1.0000,-2.0000,-1.0000,-5.0000,0.0000,0
5730.6930,-2.0000,-3.0000,-3.0000,-4.0000,-4.0000,-1.0000,-1.0000,-2.0000,0
5735.7220,0.0000,-1.0000,-2.0000,-1.0000,-1.0000,0.0000,3.0000,0.0000,0
5740.7220,0.0000,0.0000,1.0000,0.0000,-1.0000,0.0000,0.0000,1.0000,0
5745.7220,0.0000,1.0000,11.0000,3.0000,-2.0000,0.0000,1.0000,0.0000,0
5750.7220,0.0000,3.0000,-11.0000,-3.0000,-1.0000,-1.0000,2.0000,-1.0000,0
5755.7220,0.0000,-1.0000,2.0000,-3.0000,0.0000,0.0000,1.0000,-3.0000,0
5760.7220,0.0000,-1.0000,-2.0000,-3.0000,-4.0000,-2.0000,0.0000,0.0000,0
5765.7220,-1.0000,-2.0000,-2.0000,-2.0000,2.0000,-1.0000,0.0000,-1.0000,0
5770.7220,-3.0000,-4.0000,0.0000,-2.0000,-1.0000,0.0000,0.0000,-2.0000,0
5775.7220,-1.0000,-2.0000,-1.0000,1.0000,-2.0000,0.0000,-2.0000,-2.0000,0
5780.7220,-3.0000,1.0000,-2.0000,1.0000,2.0000,1.0000,0.0000,-2.0000,0
5785.7220,-2.0000,0.0000,-3.0000,-2.0000,-1.0000,0.0000,-2.0000,-1.0000,0
5790.7220,1.0000,-2.0000,0.0000,-2.0000,-2.0000,-2.0000,1.0000,0.0000,0
5795.7220,-1.0000,-1.0000,-3.0000,1.0000,-2.0000,-2.0000,-2.0000,0.0000,0
5800.7220,0.0000,-3.0000,1.0000,-2.0000,-4.0000,-3.0000,0.0000,0.0000,0
5805.7220,-1.0000,2.0000,-4.0000,0.0000,2.0000,-1.0000,3.0000,0.0000,0
5810.7220,-2.0000,-3.0000,-9.0000,-4.0000,0.0000,-1.0000,-2.0000,0.0000,0
5815.7220,-1.0000,1.0000,8.0000,1.0000,0.0000,0.0000,1.0000,0.0000,0
5820.7220,0.0000,1.0000,-3.0000,-1.0000,2.0000,0.0000,-2.0000,-2.0000,0
5825.7220,0.0000,-3.0000,-1.0000,2.0000,0.0000,2.0000,-1.0000,0.0000,0
5830.7220,-2.0000,-2.0000,1.0000,1.0000,0.0000,-2.0000,-1.0000,-1.0000,0
5835.7220,-2.0000,-2.0000,-1.0000,-1.0000,0.0000,-1.0000,-3.0000,-1.0000,0
5840.7220,-1.0000,0.0000,1.0000,0.0000,-4.0000,0.0000,1.0000,-2.0000,0
5845.7220,-1.0000,0.0000,-8.0000,-5.0000,-1.0000,1.0000,0.0000,0.0000,0
5850.7220,1.0000,3.0000,6.0000,1.0000,1.0000,-1.0000,0.0000,-2.0000,0
5855.7220,0.0000,-3.0000,-3.0000,1.0000,1.0000,-1.0000,0.0000,0.0000,0
5860.7220,-2.0000,0.0000,1.0000,-2.0000,2.0000,1.0000,1.0000,0.0000,0
5865.7220,-1.0000,-1.0000,0.0000,1.0000,0.0000,0.0000,1.0000,-1.0000,0
5870.7220,0.0000,-3.0000,5.0000,1.0000,0.0000,-1.0000,-2.0000,-3.0000,0
5875.7220,-1.0000,3.0000,-4.0000,-2.0000,-1.0000,1.0000,-2.0000,-1.0000,0
5880.7220,0.0000,-4.0000,-1.0000,-3.0000,-1.0000,-1.0000,-1.0000,0.0000,0
5885.7220,-2.0000,-1.0000,0.0000,4.0000,-1.0000,2.0000,-3.0000,-2.0000,0
5890.7220,2.0000,0.0000,3.0000,0.0000,1.0000,0.0000,1.0000,-1.0000,0
5895.7220,0.0000,0.0000,-7.0000,-2.0000,1.0000,0.0000,0.0000,-2.0000,0
5900.7220,0.0000,-1.0000,2.0000,0.0000,-1.0000,0.0000,-2.0000,1.0000,0
5905.7220,1.0000,-2.0000,0.0000,-3.0000,-1.0000,-3.0000,-2.0000,-1.0000,0
5910.7220,0.0000,0.0000,-2.0000,0.0000,-1.0000,0.0000,-2.0000,0.0000,0
5915.7220,0.0000,1.0000,1.0000,1.0000,-2.0000,-1.0000,0.0000,-1.0000,0
5920.7220,-2.0000,-1.0000,-2.0000,-1.0000,-2.0000,-1.0000,-1.0000,-1.0000,0
5925.7220,-2.0000,-1.0000,-2.0000,-5.0000,-2.0000,-2.0000,-1.0000,-2.0000,0
5930.7220,0.0000,-1.0000,-4.0000,2.0000,-1.0000,1.0000,-2.0000,1.0000,0
5935.7220,-1.0000,0.0000,-1.0000,-1.0000,1.0000,-3.0000,-1.0000,-2.0000,0
5940.7220,0.0000,0.0000,0.0000,1.0000,0.0000,1.0000,-2.0000,-1.0000,0
5945.7220,0.0000,0.0000,0.0000,1.0000,0.0000,1.0000,2.0000,-1.0000,0
5950.7220,0.0000,0.0000,1.0000,-3.0000,-2.0000,1.0000,-1.0000,1.0000,0
5955.7220,-1.0000,0.0000,3.0000,-2.0000,-1.0000,1.0000,-1.0000,1.0000,0
5960.7670,1.0000,0.0000,2.0000,3.0000,1.0000,2.0000,-1.0000,-1.0000,0
5965.7670,-2.0000,-3.0000,-3.0000,-3.0000,-1.0000,-2.0000,-1.0000,-1.0000,0
5970.7670,-2.0000,-2.0000,-4.0000,-2.0000,0.0000,-3.0000,3.0000,-1.0000,0
5975.7670,1.0000,1.0000,7.0000,1.0000,0.0000,2.0000,-1.0000,-1.0000,0
5980.7670,0.0000,0.0000,-3.0000,-4.0000,2.0000,-2.0000,-3.0000,-1.0000,0
5985.7670,0.0000,-1.0000,-4.0000,0.0000,-2.0000,-3.0000,-5.0000,3.0000,0
5990.7670,0.0000,0.0000,-1.0000,-1.0000,-2.0000,0.0000,-1.0000,0.0000,0
5995.7670,-1.0000,-3.0000,-3.0000,0.0000,-3.0000,-3.0000,0.0000,0.0000,0
6000.7670,-3.0000,-1.0000,1.0000,2.0000,-1.0000,-2.0000,0.0000,0.0000,0
9006.1850,-9.0000,12.0000,0.0000,0.0000,3.0000,13.0000,7.0000,1.0000,1
9011.1850,-19.0000,-57.0000,-1.0000,0.0000,3.0000,12.0000,-6.0000,-6.0000,1
9016.1850,-37.0000,36.0000,-1.0000,-11.0000,-7.0000,-7.0000,-6.0000,-51.0000,1
9021.1850,-4.0000,9.0000,6.0000,1.0000,3.0000,-4.0000,9.0000,5.0000,1
9026.1850,-22.0000,-49.0000,-6.0000,-2.0000,-1.0000,-5.0000,6.0000,0.0000,1
9031.1850,26.0000,103.0000,2.0000,1.0000,-1.0000,-2.0000,-3.0000,12.0000,1
9036.1850,4.0000,39.0000,4.0000,-2.0000,-1.0000,-3.0000,-2.0000,-55.0000,1
9041.1850,-14.0000,-14.0000,2.0000,4.0000,2.0000,5.0000,-3.0000,10.0000,1
9046.1850,-18.0000,-21.0000,-6.0000,-4.0000,-6.0000,-6.0000,6.0000,-21.0000,1
9051.1850,-14.0000,-90.0000,2.0000,4.0000,2.0000,2.0000,-4.0000,47.0000,1
9056.1850,-57.0000,-94.0000,-7.0000,-7.0000,-3.0000,-1.0000,7.0000,-20.0000,1
9061.1850,-57.0000,-94.0000,-7.0000,-7.0000,-3.0000,-1.0000,7.0000,-20.0000,1
9066.1850,67.0000,106.0000,-6.0000,-9.0000,-8.0000,-10.0000,-3.0000,-45.0000,1
9071.1850,-13.0000,-80.0000,-9.0000,-1.0000,3.0000,4.0000,5.0000,-12.0000,1
9076.1850,-11.0000,52.0000,1.0000,-2.0000,-5.0000,-6.0000,-6.0000,-15.0000,1
9081.1850,-4.0000,14.0000,-3.0000,0.0000,5.0000,3.0000,14.0000,40.0000,1
9086.1850,17.0000,24.0000,0.0000,1.0000,0.0000,9.0000,-15.0000,-22.0000,1
9091.1850,-60.0000,-2.0000,-1.0000,-2.0000,0.0000,3.0000,21.0000,17.0000,1
9096.1850,38.0000,12.0000,-4.0000,0.0000,-1.0000,3.0000,-6.0000,-6.0000,1
9101.1850,-11.0000,-54.0000,0.0000,5.0000,5.0000,-2.0000,1.0000,44.0000,1
9106.1850,9.0000,32.0000,2.0000,-5.0000,-5.0000,-21.0000,-1.0000,-21.0000,1
9111.1860,-14.0000,43.0000,1.0000,2.0000,3.0000,17.0000,3.0000,34.0000,1
9116.1860,27.0000,6.0000,0.0000,-1.0000,0.0000,-6.0000,-5.0000,-39.0000,1
9121.1860,27.0000,6.0000,0.0000,-1.0000,0.0000,-6.0000,-5.0000,-39.0000,1
9126.1860,18.0000,-30.0000,4.0000,1.0000,0.0000,9.0000,-4.0000,-55.0000,1
9131.1860,33.0000,-4.0000,5.0000,3.0000,2.0000,-7.0000,0.0000,-35.0000,1
9136.1860,-9.0000,-22.0000,-3.0000,-5.0000,-4.0000,-10.0000,11.0000,-2.0000,1
9141.1860,-5.0000,54.0000,-1.0000,3.0000,1.0000,2.0000,-3.0000,-26.0000,1
9146.1860,-5.0000,54.0000,-1.0000,3.0000,1.0000,2.0000,-3.0000,-26.0000,1
9151.1860,99.0000,79.0000,-1.0000,3.0000,-8.0000,-5.0000,-8.0000,-3.0000,1
9156.1860,99.0000,79.0000,-1.0000,3.0000,-8.0000,-5.0000,-8.0000,-3.0000,1
9161.1860,13.0000,-96.0000,2.0000,4.0000,3.0000,4.0000,11.0000,-7.0000,1
9166.1860,-18.0000,40.0000,3.0000,2.0000,0.0000,1.0000,11.0000,42.0000,1
9171.1860,-18.0000,40.0000,3.0000,2.0000,0.0000,1.0000,11.0000,42.0000,1
9176.1860,-22.0000,-103.0000,-10.0000,-6.0000,-3.0000,-3.0000,0.0000,20.0000,1
9181.1860,-22.0000,45.0000,-5.0000,-8.0000,0.0000,6.0000,-20.0000,-40.0000,1
9186.1860,-22.0000,18.0000,-1.0000,-4.0000,-3.0000,-1.0000,4.0000,-39.0000,1
9191.1860,8.0000,73.0000,1.0000,-2.0000,-2.0000,-4.0000,1.0000,-19.0000,1
9196.1860,59.0000,-34.0000,-1.0000,1.0000,-1.0000,-5.0000,-11.0000,-4.0000,1
9201.1860,-6.0000,2.0000,2.0000,-2.0000,-2.0000,8.0000,8.0000,15.0000,1
9206.1860,-12.0000,17.0000,3.0000,-8.0000,-2.0000,4.0000,-17.0000,-77.0000,1
9211.1860,43.0000,17.0000,-1.0000,-3.0000,1.0000,2.0000,0.0000,-9.0000,1
9216.1860,-26.0000,-47.0000,-5.0000,-2.0000,-3.0000,-5.0000,7.0000,-18.0000,1
9221.1860,6.0000,27.0000,4.0000,2.0000,0.0000,-6.0000,-8.0000,5.0000,1
9226.1860,-12.0000,-38.0000,-4.0000,2.0000,0.0000,-2.0000,4.0000,118.0000,1
9231.1860,-7.0000,32.0000,-1.0000,-2.0000,-1.0000,-2.0000,12.0000,48.0000,1
9236.1860,-47.0000,-54.0000,-4.0000,-8.0000,-4.0000,-10.0000,2.0000,25.0000,1
9241.1860,4.0000,51.0000,-1.0000,-5.0000,2.0000,15.0000,6.0000,-57.0000,1
9246.1860,4.0000,51.0000,-1.0000,-5.0000,2.0000,15.0000,6.0000,-57.0000,1
9251.1860,-44.0000,-68.0000,-3.0000,-6.0000,1.0000,-3.0000,-9.0000,-38.0000,1
9256.1860,-44.0000,-68.0000,-3.0000,-6.0000,1.0000,-3.0000,-9.0000,-38.0000,1
9261.1860,-2.0000,17.0000,0.0000,1.0000,-3.0000,-7.0000,-6.0000,32.0000,1
9266.1860,-9.0000,16.0000,-5.0000,-5.0000,-4.0000,1.0000,-6.0000,-33.0000,1
9271.1860,-10.0000,-69.0000,0.0000,2.0000,0.0000,-1.0000,2.0000,27.0000,1
9276.1860,43.0000,92.0000,9.0000,12.0000,2.0000,-3.0000,-3.0000,39.0000,1
9281.1860,3.0000,-26.0000,-6.0000,-5.0000,-7.0000,-2.0000,1.0000,21.0000,1
9286.1860,16.0000,-4.0000,-1.0000,-4.0000,-4.0000,4.0000,-14.0000,-41.0000,1
9291.1860,-28.0000,0.0000,-4.0000,-9.0000,-4.0000,-2.0000,-4.0000,-61.0000,1
9296.1860,-68.0000,-64.0000,-1.0000,1.0000,0.0000,-2.0000,5.0000,51.0000,1
9301.1860,12.0000,83.0000,6.0000,3.0000,0.0000,0.0000,-7.0000,40.0000,1
9306.1860,-7.0000,0.0000,2.0000,5.0000,2.0000,-11.0000,24.0000,71.0000,1
9311.1860,-30.0000,-26.0000,-2.0000,2.0000,3.0000,2.0000,-3.0000,-8.0000,1
9316.1860,-30.0000,-26.0000,-2.0000,2.0000,3.0000,2.0000,-3.0000,-8.0000,1
9321.1860,-3.0000,39.0000,0.0000,1.0000,3.0000,-7.0000,-3.0000,-11.0000,1
9326.1860,-3.0000,39.0000,0.0000,1.0000,3.0000,-7.0000,-3.0000,-11.0000,1
9331.1860,36.0000,76.0000,3.0000,-1.0000,-2.0000,-4.0000,-6.0000,22.0000,1
9336.1860,-13.0000,-25.0000,-3.0000,2.0000,0.0000,-10.0000,-11.0000,-48.0000,1
9341.1860,39.0000,-12.0000,-4.0000,-1.0000,-3.0000,9.0000,-26.0000,0.0000,1
9346.1860,1.0000,-19.0000,3.0000,4.0000,4.0000,1.0000,-1.0000,60.0000,1
9351.1860,1.0000,-19.0000,3.0000,4.0000,4.0000,1.0000,-1.0000,60.0000,1
9356.1860,51.0000,20.0000,-2.0000,-1.0000,0.0000,-7.0000,-2.0000,-4.0000,1
9361.1860,-34.0000,-77.0000,-4.0000,-2.0000,3.0000,2.0000,3.0000,-3.0000,1
9366.1860,-24.0000,61.0000,0.0000,-1.0000,-2.0000,-1.0000,7.0000,21.0000,1
9371.1860,-4.0000,-87.0000,-1.0000,3.0000,2.0000,-3.0000,-14.0000,-83.0000,1
9376.1860,14.0000,-11.0000,-3.0000,-11.0000,-2.0000,1.0000,1.0000,-12.0000,1
9381.1860,8.0000,-20.0000,-6.0000,-2.0000,-1.0000,-9.0000,-6.0000,8.0000,1
9386.1860,7.0000,-25.0000,4.0000,2.0000,-1.0000,-3.0000,-3.0000,17.0000,1
9391.1860,7.0000,-25.0000,4.0000,2.0000,-1.0000,-3.0000,-3.0000,17.0000,1
9396.1860,-30.0000,-56.0000,-1.0000,1.0000,-2.0000,4.0000,5.0000,-62.0000,1
9401.1860,-30.0000,-56.0000,-1.0000,1.0000,-2.0000,4.0000,5.0000,-62.0000,1
9406.1860,-12.0000,7.0000,-1.0000,-6.0000,-2.0000,3.0000,-17.0000,-29.0000,1
9411.1860,-6.0000,-17.0000,-4.0000,-4.0000,1.0000,0.0000,2.0000,-18.0000,1
9416.1860,3.0000,0.0000,-3.0000,-2.0000,1.0000,0.0000,-1.0000,6.0000,1
9421.1860,-21.0000,19.0000,0.0000,-1.0000,2.0000,4.0000,1.0000,9.0000,1
9426.1860,10.0000,1.0000,-1.0000,2.0000,0.0000,-8.0000,5.0000,-7.0000,1
9431.1860,-9.0000,-28.0000,2.0000,2.0000,1.0000,2.0000,-15.0000,33.0000,1
9436.1860,59.0000,116.0000,5.0000,1.0000,-3.0000,1.0000,3.0000,10.0000,1
9441.1860,59.0000,116.0000,5.0000,1.0000,-3.0000,1.0000,3.0000,10.0000,1
9446.1860,-36.0000,31.0000,-3.0000,-3.0000,2.0000,3.0000,3.0000,-21.0000,1
9451.1860,-36.0000,31.0000,-3.0000,-3.0000,2.0000,3.0000,3.0000,-21.0000,1
9456.1860,-17.0000,-20.0000,1.0000,1.0000,-1.0000,-7.0000,1.0000,50.0000,1
9461.1860,-34.0000,-81.0000,-8.0000,-7.0000,-6.0000,-5.0000,-12.0000,-42.0000,1
9466.1860,7.0000,32.0000,3.0000,2.0000,0.0000,-2.0000,6.0000,45.0000,1
9471.1860,2.0000,-40.0000,-4.0000,0.0000,-2.0000,-2.0000,-2.0000,-9.0000,1
9476.1860,-11.0000,34.0000,3.0000,1.0000,1.0000,-5.0000,-2.0000,-3.0000,1
9481.1860,21.0000,28.0000,2.0000,1.0000,-3.0000,-6.0000,0.0000,-23.0000,1
9486.1860,-20.0000,64.0000,-4.0000,-7.0000,-6.0000,0.0000,2.0000,-26.0000,1
9491.1860,-20.0000,64.0000,-4.0000,-7.0000,-6.0000,0.0000,2.0000,-26.0000,1
9496.1860,-34.0000,-35.0000,-4.0000,-3.0000,-3.0000,-5.0000,3.0000,-20.0000,1
9501.1860,32.0000,3.0000,2.0000,-1.0000,1.0000,-1.0000,24.0000,119.0000,1
9506.1860,32.0000,3.0000,2.0000,-1.0000,1.0000,-1.0000,24.0000,119.0000,1
9511.1860,13.0000,-59.0000,-1.0000,3.0000,1.0000,1.0000,-5.0000,26.0000,1
9516.1860,23.0000,15.0000,-3.0000,1.0000,1.0000,1.0000,6.0000,-9.0000,1
9521.1860,-36.0000,1.0000,-2.0000,4.0000,0.0000,-2.0000,15.0000,59.0000,1
9526.1860,-29.0000,-11.0000,-3.0000,0.0000,-1.0000,1.0000,-1.0000,6.0000,1
9531.1860,-29.0000,-11.0000,-3.0000,0.0000,-1.0000,1.0000,-1.0000,6.0000,1
9536.1860,16.0000,-45.0000,-5.0000,-4.0000,-2.0000,-9.0000,-13.0000,-42.0000,1
9541.1860,16.0000,-45.0000,-5.0000,-4.0000,-2.0000,-9.0000,-13.0000,-42.0000,1
9546.1860,-18.0000,-39.0000,-3.0000,-1.0000,-1.0000,0.0000,17.0000,12.0000,1
9551.1860,-13.0000,26.0000,3.0000,0.0000,-2.0000,2.0000,-6.0000,-6.0000,1
9556.1860,17.0000,-11.0000,0.0000,1.0000,1.0000,5.0000,5.0000,48.0000,1
9561.1860,17.0000,-11.0000,0.0000,1.0000,1.0000,5.0000,5.0000,48.0000,1
9566.1860,-9.0000,-34.0000,-3.0000,-2.0000,-1.0000,-2.0000,-9.0000,-29.0000,1
9571.1860,-9.0000,-34.0000,-3.0000,-2.0000,-1.0000,-2.0000,-9.0000,-29.0000,1
9576.1860,15.0000,47.0000,-3.0000,-8.0000,-5.0000,11.0000,7.0000,28.0000,1
9581.1970,-35.0000,6.0000,-4.0000,-3.0000,-4.0000,3.0000,2.0000,23.0000,1
9586.1970,46.0000,62.0000,3.0000,6.0000,-2.0000,-6.0000,-14.0000,16.0000,1
9591.1970,57.0000,-10.0000,1.0000,7.0000,3.0000,-3.0000,-3.0000,51.0000,1
9596.1970,57.0000,-10.0000,1.0000,7.0000,3.0000,-3.0000,-3.0000,51.0000,1
9601.1970,29.0000,5.0000,-2.0000,-3.0000,-1.0000,2.0000,8.0000,-13.0000,1
9606.1970,29.0000,5.0000,-2.0000,-3.0000,-1.0000,2.0000,8.0000,-13.0000,1
9611.1970,41.0000,38.0000,-2.0000,-4.0000,-4.0000,-1.0000,-7.0000,-17.0000,1
9616.1970,-29.0000,23.0000,0.0000,2.0000,-2.0000,-7.0000,-6.0000,-35.0000,1
9621.1970,25.0000,35.0000,0.0000,-5.0000,2.0000,6.0000,-4.0000,-7.0000,1
9626.1970,7.0000,-62.0000,3.0000,6.0000,1.0000,-5.0000,9.0000,-24.0000,1
9631.1970,11.0000,18.0000,1.0000,5.0000,5.0000,5.0000,5.0000,70.0000,1
9636.1970,14.0000,4.0000,1.0000,3.0000,-1.0000,0.0000,4.0000,66.0000,1
9641.1970,-17.0000,-50.0000,-1.0000,2.0000,4.0000,4.0000,5.0000,-34.0000,1
9646.1970,-32.0000,19.0000,-4.0000,-1.0000,-8.0000,-2.0000,-7.0000,-28.0000,1
9651.1970,-65.0000,-92.0000,-10.0000,-13.0000,-5.0000,-2.0000,-9.0000,-50.0000,1
9656.1970,1.0000,-43.0000,-2.0000,0.0000,-3.0000,-1.0000,-2.0000,-13.0000,1
9661.1970,-1.0000,11.0000,2.0000,-5.0000,-3.0000,-5.0000,-5.0000,17.0000,1
9666.1970,-1.0000,11.0000,2.0000,-5.0000,-3.0000,-5.0000,-5.0000,17.0000,1
9671.1970,14.0000,31.0000,-4.0000,-7.0000,-6.0000,-11.0000,-3.0000,6.0000,1
9676.1970,14.0000,31.0000,-4.0000,-7.0000,-6.0000,-11.0000,-3.0000,6.0000,1
9681.1970,-18.0000,-46.0000,4.0000,6.0000,0.0000,-5.0000,-5.0000,54.0000,1
9686.1970,-18.0000,-46.0000,4.0000,6.0000,0.0000,-5.0000,-5.0000,54.0000,1
9691.1970,27.0000,-37.0000,-1.0000,-3.0000,4.0000,2.0000,9.0000,27.0000,1
9696.1970,27.0000,-37.0000,-1.0000,-3.0000,4.0000,2.0000,9.0000,27.0000,1
9701.1970,20.0000,106.0000,8.0000,5.0000,-4.0000,7.0000,-7.0000,22.0000,1
9706.1970,-25.0000,3.0000,-2.0000,-2.0000,-3.0000,-3.0000,1.0000,5.0000,1
9711.1970,-57.0000,-11.0000,-1.0000,1.0000,0.0000,4.0000,-5.0000,-40.0000,1
9716.1970,-57.0000,-11.0000,-1.0000,1.0000,0.0000,4.0000,-5.0000,-40.0000,1
9721.1970,-21.0000,-41.0000,-3.0000,1.0000,1.0000,-6.0000,14.0000,50.0000,1
9726.1970,-18.0000,16.0000,2.0000,5.0000,1.0000,-1.0000,1.0000,22.0000,1
9731.1970,-15.0000,-29.0000,-1.0000,-2.0000,1.0000,2.0000,0.0000,-17.0000,1
9736.1970,-15.0000,-29.0000,-1.0000,-2.0000,1.0000,2.0000,0.0000,-17.0000,1
9741.1970,14.0000,-18.0000,-5.0000,-5.0000,-3.0000,0.0000,-4.0000,-61.0000,1
9746.1970,0.0000,63.0000,-1.0000,0.0000,-6.0000,-5.0000,1.0000,42.0000,1
9751.1970,0.0000,63.0000,-1.0000,0.0000,-6.0000,-5.0000,1.0000,42.0000,1
9756.1970,-37.0000,5.0000,-5.0000,-4.0000,5.0000,7.0000,5.0000,-12.0000,1
9761.1970,8.0000,5.0000,-2.0000,-5.0000,2.0000,2.0000,-7.0000,-32.0000,1
9766.1970,74.0000,63.0000,-2.0000,4.0000,-1.0000,-11.0000,-14.0000,16.0000,1
9771.1970,-25.0000,-47.0000,0.0000,-1.0000,-2.0000,0.0000,-2.0000,1.0000,1
9776.2610,-22.0000,-18.0000,-1.0000,1.0000,-2.0000,2.0000,0.0000,29.0000,1
9781.2610,3.0000,29.0000,2.0000,0.0000,0.0000,-3.0000,-1.0000,-6.0000,1
9786.2610,-8.0000,-17.0000,-1.0000,0.0000,3.0000,-8.0000,-10.0000,-9.0000,1
9791.2610,15.0000,19.0000,2.0000,1.0000,2.0000,3.0000,0.0000,-42.0000,1
9796.2610,20.0000,56.0000,0.0000,1.0000,-1.0000,1.0000,-5.0000,-28.0000,1
9801.2610,-44.0000,-69.0000,-5.0000,-4.0000,-3.0000,-9.0000,-4.0000,-93.0000,1
9806.2610,-18.0000,21.0000,-5.0000,-9.0000,-2.0000,4.0000,10.0000,-29.0000,1
9811.2610,8.0000,8.0000,2.0000,0.0000,4.0000,4.0000,-1.0000,27.0000,1
9816.2610,6.0000,-2.0000,-4.0000,-1.0000,-3.0000,-7.0000,-10.0000,-8.0000,1
9821.2610,-8.0000,-11.0000,0.0000,4.0000,1.0000,1.0000,2.0000,27.0000,1
9826.2610,-6.0000,-8.0000,-2.0000,-2.0000,-1.0000,6.0000,-3.0000,-35.0000,1
9831.2610,-6.0000,-8.0000,-2.0000,-2.0000,-1.0000,6.0000,-3.0000,-35.0000,1
9836.2610,0.0000,-16.0000,1.0000,-3.0000,-3.0000,-5.0000,0.0000,-2.0000,1
9841.2610,10.0000,19.0000,2.0000,0.0000,-1.0000,-2.0000,2.0000,8.0000,1
9846.2610,-14.0000,-7.0000,-4.0000,2.0000,1.0000,0.0000,0.0000,-31.0000,1
9851.2610,-27.0000,-93.0000,-5.0000,0.0000,-3.0000,-4.0000,-13.0000,8.0000,1
9856.2610,-49.0000,93.0000,-2.0000,-8.0000,-2.0000,-3.0000,-23.0000,-53.0000,1
9861.2610,-49.0000,93.0000,-2.0000,-8.0000,-2.0000,-3.0000,-23.0000,-53.0000,1
9866.2610,32.0000,-50.0000,-2.0000,-4.0000,-3.0000,-5.0000,2.0000,55.0000,1
9871.2610,10.0000,-6.0000,5.0000,6.0000,-2.0000,-1.0000,16.0000,24.0000,1
9876.2610,-26.0000,-45.0000,0.0000,-2.0000,-5.0000,-3.0000,9.0000,29.0000,1
9881.2610,-26.0000,-45.0000,0.0000,-2.0000,-5.0000,-3.0000,9.0000,29.0000,1
9886.2610,-25.0000,35.0000,-1.0000,6.0000,1.0000,6.0000,1.0000,2.0000,1
9891.2610,40.0000,-59.0000,-3.0000,-6.0000,-3.0000,-4.0000,-6.0000,4.0000,1
9896.2610,-3.0000,25.0000,2.0000,0.0000,2.0000,1.0000,-4.0000,20.0000,1
9901.2610,0.0000,4.0000,0.0000,3.0000,-4.0000,-17.0000,-2.0000,25.0000,1
9906.2610,0.0000,4.0000,0.0000,3.0000,-4.0000,-17.0000,-2.0000,25.0000,1
9911.2610,-6.0000,-39.0000,1.0000,4.0000,4.0000,13.0000,3.0000,11.0000,1
9916.2610,3.0000,35.0000,-4.0000,0.0000,2.0000,-1.0000,-3.0000,-4.0000,1
9921.2610,19.0000,-21.0000,-1.0000,-2.0000,-2.0000,-2.0000,5.0000,10.0000,1
9926.2610,43.0000,-40.0000,-3.0000,-1.0000,-1.0000,5.0000,-6.0000,-12.0000,1
9937.0420,36.0000,49.0000,-4.0000,-7.0000,0.0000,-5.0000,-4.0000,-82.0000,1
9942.0420,25.0000,-23.0000,0.0000,2.0000,-3.0000,-4.0000,-4.0000,-24.0000,1
9947.0420,-85.0000,-51.0000,-4.0000,-9.0000,-5.0000,2.0000,-9.0000,-24.0000,1
9952.0420,-5.0000,11.0000,4.0000,6.0000,2.0000,-1.0000,13.0000,15.0000,1
9957.0420,-63.0000,47.0000,0.0000,-5.0000,-1.0000,3.0000,4.0000,8.0000,1
9962.0420,19.0000,-33.0000,-1.0000,5.0000,3.0000,-1.0000,3.0000,4.0000,1
9967.0420,1.0000,51.0000,1.0000,0.0000,0.0000,5.0000,12.0000,9.0000,1
9972.0420,-22.0000,-18.0000,-3.0000,-2.0000,-1.0000,5.0000,18.0000,7.0000,1
9977.0420,-24.0000,-22.0000,-4.0000,-2.0000,1.0000,-3.0000,-15.0000,18.0000,1
9982.0420,-2.0000,23.0000,3.0000,2.0000,0.0000,2.0000,9.0000,27.0000,1
9987.0420,-17.0000,-26.0000,-3.0000,2.0000,0.0000,2.0000,-3.0000,10.0000,1
9992.0420,13.0000,13.0000,2.0000,1.0000,-1.0000,-3.0000,-17.0000,-17.0000,1
9997.0420,37.0000,12.0000,-1.0000,-3.0000,-1.0000,-4.0000,2.0000,-30.0000,1
10002.0400,2.0000,-5.0000,-2.0000,-2.0000,-2.0000,-7.0000,-4.0000,28.0000,1
10007.0400,-3.0000,18.0000,2.0000,1.0000,0.0000,5.0000,4.0000,-35.0000,1
10012.0400,29.0000,5.0000,-2.0000,-1.0000,-4.0000,-6.0000,8.0000,20.0000,1
10017.0400,-25.0000,30.0000,-1.0000,-2.0000,-1.0000,5.0000,0.0000,-9.0000,1
10022.0400,27.0000,-67.0000,-4.0000,-1.0000,-3.0000,2.0000,-10.0000,-71.0000,1
10027.0400,55.0000,66.0000,1.0000,0.0000,1.0000,-2.0000,0.0000,-53.0000,1
10032.0400,-15.0000,-45.0000,-4.0000,-3.0000,-2.0000,0.0000,4.0000,23.0000,1
10037.0400,55.0000,13.0000,3.0000,1.0000,-4.0000,-4.0000,-7.0000,16.0000,1
10042.0400,1.0000,5.0000,-1.0000,3.0000,1.0000,6.0000,-16.0000,-6.0000,1
10047.0400,5.0000,20.0000,1.0000,-1.0000,-2.0000,-5.0000,-5.0000,-14.0000,1
10052.0400,-1.0000,-19.0000,0.0000,-3.0000,-6.0000,-13.0000,-10.0000,-23.0000,1
10057.0400,6.0000,-11.0000,-1.0000,-4.0000,1.0000,2.0000,1.0000,-42.0000,1
10062.0400,-27.0000,-3.0000,0.0000,-1.0000,-1.0000,1.0000,6.0000,-4.0000,1
10067.0400,-50.0000,-58.0000,-5.0000,-6.0000,0.0000,3.0000,1.0000,-18.0000,1
10072.0400,24.0000,58.0000,2.0000,1.0000,1.0000,5.0000,-5.0000,-2.0000,1
10077.0400,0.0000,-23.0000,0.0000,-1.0000,-6.0000,-7.0000,5.0000,-27.0000,1
10082.0400,-11.0000,26.0000,-2.0000,-4.0000,6.0000,-1.0000,1.0000,18.0000,1
10087.0400,47.0000,-16.0000,-2.0000,2.0000,-11.0000,-2.0000,-9.0000,19.0000,1
10092.0400,11.0000,-7.0000,0.0000,0.0000,1.0000,-3.0000,11.0000,40.0000,1
10097.0400,-9.0000,-14.0000,-3.0000,-1.0000,0.0000,-4.0000,-12.0000,-22.0000,1
10102.0400,7.0000,17.0000,-1.0000,-6.0000,-2.0000,-3.0000,-3.0000,-2.0000,1
10107.0400,-44.0000,4.0000,-2.0000,-1.0000,5.0000,2.0000,14.0000,-31.0000,1
10112.0400,-46.0000,-76.0000,0.0000,4.0000,0.0000,-5.0000,-18.0000,-26.0000,1
10117.0400,20.0000,48.0000,1.0000,-4.0000,-1.0000,1.0000,-8.0000,-50.0000,1
10122.0400,0.0000,-8.0000,-4.0000,0.0000,-4.0000,-1.0000,0.0000,-8.0000,1
10127.0400,3.0000,8.0000,-1.0000,-3.0000,-1.0000,-2.0000,3.0000,35.0000,1
10132.0400,-10.0000,-25.0000,-1.0000,-1.0000,-5.0000,-7.0000,-1.0000,-2.0000,1
10137.0400,-27.0000,-43.0000,-4.0000,0.0000,0.0000,2.0000,4.0000,15.0000,1
10142.0400,24.0000,7.0000,1.0000,3.0000,0.0000,-3.0000,0.0000,-6.0000,1
10147.0400,19.0000,-1.0000,0.0000,-1.0000,5.0000,0.0000,-2.0000,15.0000,1
10152.0400,8.0000,1.0000,-2.0000,-1.0000,-5.0000,4.0000,-3.0000,-21.0000,1
10157.0400,-9.0000,-4.0000,1.0000,-1.0000,-19.0000,-3.0000,4.0000,13.0000,1
10162.0400,-3.0000,3.0000,2.0000,-6.0000,-4.0000,-5.0000,-6.0000,-22.0000,1
10167.0400,15.0000,-3.0000,-4.0000,-3.0000,9.0000,-4.0000,-3.0000,-37.0000,1
10172.0400,-2.0000,8.0000,-3.0000,-1.0000,5.0000,1.0000,-7.0000,27.0000,1
10177.0400,-16.0000,-13.0000,-4.0000,-2.0000,3.0000,0.0000,3.0000,-31.0000,1
10182.0400,16.0000,0.0000,2.0000,5.0000,-4.0000,3.0000,-9.0000,3.0000,1
10187.0400,-21.0000,7.0000,1.0000,-3.0000,-2.0000,3.0000,1.0000,44.0000,1
10192.0400,13.0000,32.0000,-2.0000,-3.0000,-1.0000,-1.0000,-6.0000,60.0000,1
10197.0400,73.0000,-41.0000,0.0000,12.0000,3.0000,2.0000,7.0000,47.0000,1
10202.0400,-19.0000,55.0000,1.0000,2.0000,6.0000,-1.0000,-2.0000,-15.0000,1
10207.0400,2.0000,22.0000,2.0000,-2.0000,3.0000,-6.0000,-3.0000,-14.0000,1
10212.0400,-56.0000,-11.0000,-1.0000,1.0000,-8.0000,6.0000,11.0000,20.0000,1
10217.0400,-63.0000,-37.0000,0.0000,0.0000,1.0000,4.0000,33.0000,21.0000,1
10222.0400,17.0000,29.0000,-3.0000,-2.0000,-6.0000,0.0000,5.0000,43.0000,1
10227.0400,-2.0000,8.0000,3.0000,2.0000,2.0000,0.0000,0.0000,38.0000,1
10232.0400,-21.0000,-6.0000,-2.0000,-3.0000,1.0000,6.0000,10.0000,-26.0000,1
10237.0400,-11.0000,-5.0000,-2.0000,-1.0000,3.0000,4.0000,-18.0000,-12.0000,1
10242.0400,58.0000,-10.0000,0.0000,3.0000,-1.0000,-9.0000,-14.0000,-53.0000,1
10247.0400,-12.0000,-6.0000,-3.0000,-1.0000,-8.0000,1.0000,4.0000,-31.0000,1
10252.0400,15.0000,32.0000,3.0000,4.0000,4.0000,0.0000,-7.0000,-8.0000,1
10257.0400,18.0000,18.0000,0.0000,3.0000,-1.0000,-9.0000,-6.0000,20.0000,1
10262.0400,-15.0000,-29.0000,-2.0000,-2.0000,1.0000,7.0000,14.0000,-8.0000,1
10267.0400,9.0000,25.0000,-1.0000,-6.0000,-5.0000,-3.0000,-17.0000,-28.0000,1
10272.0400,1.0000,3.0000,0.0000,0.0000,0.0000,0.0000,4.0000,22.0000,1
10277.0400,3.0000,19.0000,-1.0000,0.0000,4.0000,6.0000,5.0000,18.0000,1
10282.0400,16.0000,6.0000,-1.0000,3.0000,-5.0000,-3.0000,5.0000,70.0000,1
10287.0400,-8.0000,-21.0000,-7.0000,-4.0000,-3.0000,-5.0000,-12.0000,-58.0000,1
10292.0400,19.0000,-14.0000,-2.0000,-2.0000,1.0000,-2.0000,-6.0000,-36.0000,1
10297.0400,-14.0000,-26.0000,1.0000,-8.0000,-3.0000,-2.0000,5.0000,-10.0000,1
10302.0400,-58.0000,-19.0000,-3.0000,-8.0000,-1.0000,1.0000,6.0000,30.0000,1
10307.0400,-15.0000,42.0000,2.0000,0.0000,-6.0000,4.0000,-3.0000,-44.0000,1
10312.0400,-21.0000,67.0000,-4.0000,0.0000,3.0000,-5.0000,-4.0000,-2.0000,1
10317.0400,5.0000,-3.0000,-1.0000,-2.0000,-1.0000,1.0000,1.0000,31.0000,1
10322.0400,-27.0000,-13.0000,-2.0000,-2.0000,-1.0000,-8.0000,1.0000,-46.0000,1
10327.0400,-6.0000,-62.0000,-4.0000,3.0000,1.0000,-1.0000,-6.0000,36.0000,1
10332.0400,-19.0000,-73.0000,-1.0000,-3.0000,-3.0000,2.0000,2.0000,-5.0000,1
10337.0400,-3.0000,45.0000,-3.0000,-5.0000,-1.0000,-3.0000,-2.0000,2.0000,1
10342.0400,5.0000,-11.0000,2.0000,3.0000,-1.0000,4.0000,15.0000,25.0000,1
10347.0400,-29.0000,-22.0000,-6.0000,-4.0000,-3.0000,-4.0000,-5.0000,22.0000,1
10352.0400,44.0000,14.0000,1.0000,5.0000,-1.0000,-6.0000,-10.0000,-9.0000,1
10357.0400,52.0000,43.0000,-2.0000,-1.0000,3.0000,-5.0000,6.0000,69.0000,1
10362.0400,-2.0000,-23.0000,-4.0000,5.0000,1.0000,0.0000,-8.0000,63.0000,1
10367.0400,15.0000,-22.0000,4.0000,-1.0000,-2.0000,-4.0000,-1.0000,-13.0000,1
10372.0400,63.0000,32.0000,0.0000,3.0000,2.0000,4.0000,4.0000,-10.0000,1
10377.0400,-5.0000,8.0000,-2.0000,-7.0000,-6.0000,-5.0000,-19.0000,-83.0000,1
10382.0400,-10.0000,-9.0000,-1.0000,0.0000,1.0000,3.0000,-2.0000,-15.0000,1
10387.0400,10.0000,12.0000,6.0000,5.0000,4.0000,0.0000,8.0000,64.0000,1
10392.0400,-45.0000,-86.0000,-2.0000,-5.0000,-6.0000,1.0000,1.0000,-47.0000,1
10397.0400,1.0000,77.0000,-1.0000,-4.0000,-1.0000,-1.0000,5.0000,41.0000,1
10402.0400,-5.0000,-14.0000,-3.0000,-3.0000,-2.0000,-6.0000,-5.0000,-91.0000,1
10407.0400,-30.0000,3.0000,1.0000,3.0000,1.0000,3.0000,20.0000,74.0000,1
10412.0400,-15.0000,-11.0000,2.0000,-4.0000,0.0000,-6.0000,2.0000,-11.0000,1
10417.0400,1.0000,-49.0000,-2.0000,3.0000,3.0000,5.0000,-1.0000,-22.0000,1
10422.0400,-14.0000,7.0000,2.0000,-2.0000,-3.0000,-1.0000,5.0000,-8.0000,1
10427.0400,-3.0000,-3.0000,-7.0000,-7.0000,-8.0000,-2.0000,-7.0000,-92.0000,1
10432.0400,18.0000,40.0000,1.0000,1.0000,-3.0000,0.0000,0.0000,-14.0000,1
10437.0400,-42.0000,-17.0000,-5.0000,-6.0000,-2.0000,-2.0000,-12.0000,-45.0000,1
10442.0400,-11.0000,16.0000,1.0000,-2.0000,3.0000,5.0000,2.0000,11.0000,1
10447.0400,15.0000,31.0000,4.0000,4.0000,2.0000,8.0000,15.0000,2.0000,1
10452.0400,-4.0000,16.0000,-4.0000,-4.0000,1.0000,1.0000,0.0000,-38.0000,1
10457.0500,41.0000,-45.0000,-2.0000,3.0000,1.0000,-2.0000,7.0000,-10.0000,1
10462.0500,31.0000,-5.0000,1.0000,5.0000,1.0000,0.0000,-16.0000,2.0000,1
10467.0500,16.0000,15.0000,-4.0000,-5.0000,-2.0000,2.0000,-14.0000,-17.0000,1
10472.0500,-11.0000,-93.0000,2.0000,2.0000,3.0000,1.0000,1.0000,53.0000,1
10477.0500,-15.0000,94.0000,2.0000,3.0000,4.0000,4.0000,9.0000,43.0000,1
10482.0500,-13.0000,7.0000,2.0000,-5.0000,0.0000,7.0000,2.0000,50.0000,1
10487.0500,52.0000,57.0000,5.0000,9.0000,3.0000,4.0000,26.0000,60.0000,1
10492.0500,-20.0000,2.0000,-3.0000,-2.0000,-5.0000,-6.0000,-12.0000,7.0000,1
10497.0500,27.0000,-66.0000,0.0000,-1.0000,-2.0000,-3.0000,-19.0000,-6.0000,1
10502.0500,-21.0000,29.0000,0.0000,0.0000,-4.0000,-7.0000,4.0000,-29.0000,1
10507.0500,7.0000,-24.0000,-8.0000,-5.0000,-4.0000,-8.0000,-1.0000,11.0000,1
10512.0500,-22.0000,-19.0000,-2.0000,-4.0000,0.0000,1.0000,7.0000,-10.0000,1
10517.0500,-23.0000,-14.0000,-3.0000,-3.0000,-3.0000,-4.0000,-7.0000,-12.0000,1
10522.0500,10.0000,28.0000,0.0000,2.0000,3.0000,3.0000,-18.0000,3.0000,1
10527.0500,24.0000,25.0000,4.0000,1.0000,-2.0000,-4.0000,-15.0000,-31.0000,1
10532.0500,-20.0000,-32.0000,-3.0000,1.0000,-2.0000,0.0000,2.0000,10.0000,1
10537.0500,26.0000,33.0000,0.0000,2.0000,-1.0000,-4.0000,-3.0000,18.0000,1
10542.0500,-21.0000,-3.0000,-1.0000,0.0000,-4.0000,0.0000,11.0000,45.0000,1
10547.0500,-56.0000,-20.0000,-3.0000,-2.0000,1.0000,3.0000,1.0000,32.0000,1
10552.0500,18.0000,37.0000,1.0000,-1.0000,0.0000,0.0000,-4.0000,3.0000,1
10557.0500,-15.0000,-13.0000,2.0000,2.0000,-2.0000,-3.0000,5.0000,-17.0000,1
10562.0500,10.0000,29.0000,-6.0000,-7.0000,-2.0000,-4.0000,3.0000,-30.0000,1
10567.0500,7.0000,36.0000,4.0000,6.0000,3.0000,-2.0000,0.0000,10.0000,1
10572.0500,-112.0000,3.0000,-3.0000,-5.0000,-2.0000,11.0000,20.0000,-2.0000,1
10577.0500,-41.0000,-46.0000,3.0000,2.0000,5.0000,-2.0000,14.0000,17.0000,1
10582.0500,13.0000,1.0000,-1.0000,3.0000,0.0000,0.0000,-4.0000,-8.0000,1
10587.0500,-46.0000,-34.0000,-7.0000,-10.0000,-8.0000,-16.0000,-22.0000,-90.0000,1
10592.0500,11.0000,30.0000,-3.0000,-4.0000,3.0000,-4.0000,2.0000,79.0000,1
10597.0500,-49.0000,-35.0000,-2.0000,4.0000,-2.0000,6.0000,-6.0000,-30.0000,1
10602.0500,0.0000,-22.0000,-2.0000,-4.0000,1.0000,0.0000,-2.0000,10.0000,1
10607.0500,-8.0000,-14.0000,4.0000,4.0000,-2.0000,-1.0000,4.0000,37.0000,1
10612.0500,-5.0000,38.0000,3.0000,6.0000,5.0000,2.0000,-5.0000,-6.0000,1
10617.0500,-13.0000,1.0000,-3.0000,-3.0000,-3.0000,-3.0000,10.0000,3.0000,1
10622.0500,101.0000,8.0000,5.0000,7.0000,3.0000,-7.0000,-9.0000,-37.0000,1
10627.0500,4.0000,-30.0000,-1.0000,0.0000,3.0000,5.0000,-3.0000,16.0000,1
10632.0500,29.0000,6.0000,3.0000,0.0000,-4.0000,2.0000,9.0000,1.0000,1
10637.0500,4.0000,44.0000,-7.0000,-6.0000,-7.0000,-9.0000,-19.0000,-72.0000,1
10642.0500,-44.0000,-36.0000,-6.0000,-4.0000,-3.0000,7.0000,13.0000,27.0000,1
10647.0500,0.0000,-42.0000,1.0000,7.0000,2.0000,6.0000,4.0000,59.0000,1
10652.0500,54.0000,8.0000,3.0000,0.0000,0.0000,-3.0000,-12.0000,-60.0000,1
10657.0500,1.0000,-4.0000,-1.0000,-5.0000,2.0000,0.0000,0.0000,-23.0000,1
10662.0500,-39.0000,-16.0000,-1.0000,1.0000,-2.0000,-8.0000,-9.0000,15.0000,1
10667.0500,-42.0000,23.0000,-5.0000,-5.0000,-4.0000,-1.0000,-1.0000,-10.0000,1
10672.0500,6.0000,22.0000,2.0000,-5.0000,-1.0000,-3.0000,0.0000,9.0000,1
10677.0500,29.0000,-5.0000,-5.0000,-7.0000,-1.0000,-2.0000,-13.0000,-72.0000,1
10682.0500,-9.0000,-24.0000,-4.0000,-6.0000,0.0000,-1.0000,-2.0000,10.0000,1
10687.0500,49.0000,-37.0000,0.0000,-1.0000,1.0000,0.0000,0.0000,-12.0000,1
10692.0500,6.0000,27.0000,-1.0000,-1.0000,-3.0000,-1.0000,6.0000,-38.0000,1
10697.0500,10.0000,12.0000,3.0000,5.0000,2.0000,6.0000,0.0000,53.0000,1
10702.0500,-12.0000,25.0000,1.0000,1.0000,-4.0000,-6.0000,2.0000,23.0000,1
10707.0500,-7.0000,-3.0000,-2.0000,-3.0000,-3.0000,1.0000,12.0000,52.0000,1
10712.0500,30.0000,-25.0000,-4.0000,0.0000,0.0000,0.0000,-8.0000,-8.0000,1
10717.0500,3.0000,-3.0000,1.0000,1.0000,1.0000,2.0000,10.0000,0.0000,1
10722.0500,-9.0000,-56.0000,-4.0000,0.0000,-3.0000,0.0000,-21.0000,-38.0000,1
10727.0500,-10.0000,65.0000,3.0000,-1.0000,1.0000,6.0000,22.0000,30.0000,1
10732.0500,-39.0000,-30.0000,-5.0000,-3.0000,0.0000,-2.0000,-2.0000,22.0000,1
10737.0500,-17.0000,-97.0000,-7.0000,-1.0000,0.0000,-2.0000,3.0000,63.0000,1
10742.0500,23.0000,88.0000,11.0000,1.0000,-1.0000,5.0000,15.0000,23.0000,1
10747.0500,-3.0000,-44.0000,-5.0000,-3.0000,-4.0000,-2.0000,-16.0000,-45.0000,1
10752.0500,-13.0000,42.0000,-2.0000,-1.0000,-2.0000,-4.0000,-10.0000,-7.0000,1
10757.0500,-8.0000,-9.0000,-1.0000,-3.0000,-5.0000,4.0000,10.0000,-52.0000,1
10762.0500,-17.0000,-22.0000,0.0000,3.0000,0.0000,-6.0000,1.0000,5.0000,1
10767.0500,62.0000,3.0000,0.0000,1.0000,4.0000,3.0000,16.0000,54.0000,1
10772.0500,43.0000,20.0000,-1.0000,4.0000,1.0000,0.0000,-2.0000,-1.0000,1
10777.0500,0.0000,5.0000,0.0000,3.0000,0.0000,-2.0000,-8.0000,51.0000,1
10782.0500,-22.0000,-17.0000,2.0000,2.0000,1.0000,1.0000,3.0000,-14.0000,1
10787.0500,36.0000,75.0000,5.0000,3.0000,4.0000,-4.0000,-14.0000,5.0000,1
10792.0500,22.0000,-44.0000,-4.0000,5.0000,0.0000,0.0000,-1.0000,32.0000,1
10797.0500,-9.0000,-2.0000,6.0000,2.0000,4.0000,5.0000,9.0000,25.0000,1
10802.0500,-25.0000,-19.0000,-5.0000,-3.0000,3.0000,10.0000,7.0000,-9.0000,1
10807.0500,-5.0000,36.0000,1.0000,2.0000,-1.0000,0.0000,13.0000,15.0000,1
10816.8100,-5.0000,36.0000,1.0000,2.0000,-1.0000,0.0000,13.0000,15.0000,1
10821.8100,-22.0000,-53.0000,-7.0000,-3.0000,-3.0000,-6.0000,-10.0000,-39.0000,1
10826.8100,-12.0000,-43.0000,-3.0000,0.0000,-2.0000,-13.0000,-1.0000,-29.0000,1
10831.8100,40.0000,3.0000,4.0000,1.0000,-2.0000,1.0000,-5.0000,55.0000,1
10836.8100,30.0000,-6.0000,-1.0000,4.0000,1.0000,-3.0000,4.0000,33.0000,1
10841.8100,14.0000,-65.0000,-4.0000,-3.0000,2.0000,0.0000,-2.0000,-13.0000,1
10846.8100,-3.0000,45.0000,-3.0000,-5.0000,-6.0000,-5.0000,0.0000,39.0000,1
10851.8100,-29.0000,-4.0000,-3.0000,-2.0000,-2.0000,3.0000,8.0000,-4.0000,1
10856.8100,-47.0000,9.0000,-4.0000,-6.0000,2.0000,-3.0000,4.0000,-10.0000,1
10861.8100,50.0000,-14.0000,-2.0000,1.0000,-1.0000,-1.0000,3.0000,-3.0000,1
10866.8100,-22.0000,-46.0000,1.0000,-5.0000,-4.0000,-3.0000,-7.0000,-53.0000,1
10871.8100,-3.0000,56.0000,2.0000,2.0000,0.0000,2.0000,5.0000,35.0000,1
10876.8100,-16.0000,-45.0000,-4.0000,-7.0000,-2.0000,2.0000,-5.0000,-105.0000,1
10881.8100,-18.0000,41.0000,-1.0000,-5.0000,-3.0000,-1.0000,13.0000,81.0000,1
10886.8100,24.0000,18.0000,0.0000,6.0000,0.0000,1.0000,-25.0000,-46.0000,1
10891.8100,-6.0000,-8.0000,0.0000,2.0000,0.0000,-3.0000,6.0000,4.0000,1
10896.8100,-21.0000,18.0000,-4.0000,-2.0000,-3.0000,-1.0000,8.0000,6.0000,1
10901.8100,-31.0000,-27.0000,-2.0000,-6.0000,-3.0000,-11.0000,-29.0000,-35.0000,1
10906.8100,8.0000,5.0000,-1.0000,1.0000,-1.0000,4.0000,8.0000,16.0000,1
10911.8100,-9.0000,-12.0000,0.0000,-3.0000,-1.0000,-1.0000,-5.0000,72.0000,1
10916.8100,8.0000,22.0000,1.0000,3.0000,0.0000,-1.0000,8.0000,34.0000,1
10921.8100,8.0000,2.0000,-4.0000,3.0000,1.0000,-1.0000,-1.0000,-69.0000,1
10926.8100,-7.0000,-6.0000,-5.0000,-4.0000,-1.0000,1.0000,-3.0000,-62.0000,1
10931.8100,-31.0000,-22.0000,-3.0000,-8.0000,-2.0000,2.0000,5.0000,-28.0000,1
10936.8100,-10.0000,22.0000,2.0000,-2.0000,-4.0000,-7.0000,-9.0000,15.0000,1
10941.8100,38.0000,23.0000,3.0000,5.0000,3.0000,3.0000,4.0000,67.0000,1
10946.8100,6.0000,-79.0000,0.0000,6.0000,1.0000,5.0000,-6.0000,36.0000,1
10951.8100,5.0000,50.0000,-2.0000,-5.0000,-4.0000,-5.0000,-1.0000,-36.0000,1
10956.8100,3.0000,-13.0000,-1.0000,1.0000,4.0000,0.0000,4.0000,-16.0000,1
10961.8100,1.0000,-15.0000,1.0000,1.0000,0.0000,-2.0000,-6.0000,7.0000,1
10966.8100,-44.0000,11.0000,-2.0000,0.0000,0.0000,2.0000,7.0000,72.0000,1
10971.8100,9.0000,10.0000,1.0000,3.0000,1.0000,3.0000,0.0000,21.0000,1
10976.8100,10.0000,-44.0000,-2.0000,6.0000,1.0000,-4.0000,-4.0000,55.0000,1
10981.8100,-33.0000,37.0000,2.0000,-1.0000,-2.0000,3.0000,12.0000,29.0000,1
10986.8100,-9.0000,-5.0000,0.0000,0.0000,0.0000,1.0000,5.0000,33.0000,1
10991.8100,-7.0000,-13.0000,0.0000,-1.0000,-1.0000,0.0000,-6.0000,-52.0000,1
10996.8100,-1.0000,-2.0000,-1.0000,-6.0000,-6.0000,-1.0000,-11.0000,-40.0000,1
11001.8100,-10.0000,4.0000,-2.0000,3.0000,0.0000,-4.0000,-8.0000,-26.0000,1
11006.8100,-18.0000,-36.0000,-5.0000,-6.0000,-2.0000,-8.0000,-3.0000,-62.0000,1
11011.8100,26.0000,57.0000,-3.0000,-1.0000,-2.0000,-3.0000,-4.0000,-11.0000,1
11016.8100,25.0000,-53.0000,-5.0000,0.0000,-1.0000,-1.0000,2.0000,-3.0000,1
11021.8100,-61.0000,51.0000,3.0000,-3.0000,1.0000,2.0000,9.0000,58.0000,1
11026.8100,-12.0000,22.0000,-1.0000,-2.0000,0.0000,2.0000,6.0000,-29.0000,1
11031.8100,-31.0000,-48.0000,-1.0000,0.0000,-1.0000,-1.0000,1.0000,54.0000,1
11036.8100,3.0000,8.0000,-1.0000,-3.0000,-2.0000,5.0000,6.0000,20.0000,1
11041.8100,0.0000,-15.0000,-2.0000,2.0000,0.0000,1.0000,-21.0000,3.0000,1
11046.8100,-15.0000,20.0000,0.0000,-4.0000,-1.0000,3.0000,6.0000,-43.0000,1
11051.8100,-28.0000,-8.0000,1.0000,-2.0000,0.0000,-5.0000,1.0000,-18.0000,1
11056.8100,62.0000,-51.0000,-2.0000,3.0000,0.0000,0.0000,-20.0000,-102.0000,1
11061.8100,36.0000,74.0000,6.0000,-3.0000,-4.0000,-6.0000,11.0000,37.0000,1
11066.8100,31.0000,41.0000,1.0000,0.0000,-3.0000,-5.0000,-15.0000,-40.0000,1
11071.8100,18.0000,-45.0000,-3.0000,1.0000,-1.0000,-2.0000,-8.0000,8.0000,1
11076.8100,-5.0000,38.0000,-1.0000,0.0000,1.0000,-1.0000,-9.0000,22.0000,1
11081.8100,16.0000,-28.0000,-2.0000,-2.0000,-3.0000,-4.0000,5.0000,-44.0000,1
11086.8100,1.0000,-23.0000,-3.0000,-1.0000,0.0000,-2.0000,-1.0000,21.0000,1
11091.8100,19.0000,-53.0000,-6.0000,3.0000,0.0000,-2.0000,-3.0000,21.0000,1
11096.8100,1.0000,105.0000,5.0000,0.0000,-3.0000,-1.0000,12.0000,61.0000,1
11101.8100,-3.0000,-37.0000,-8.0000,-1.0000,-2.0000,1.0000,-3.0000,38.0000,1
11106.8100,-3.0000,-48.0000,2.0000,0.0000,1.0000,2.0000,7.0000,66.0000,1
11111.8100,-24.0000,24.0000,-1.0000,1.0000,1.0000,0.0000,4.0000,-65.0000,1
11116.8100,3.0000,11.0000,1.0000,-2.0000,0.0000,-2.0000,-9.0000,-18.0000,1
11121.8100,6.0000,1.0000,-2.0000,-3.0000,-4.0000,-3.0000,-4.0000,-75.0000,1
11126.8100,-43.0000,-63.0000,-1.0000,0.0000,1.0000,0.0000,0.0000,10.0000,1
11131.8100,-4.0000,63.0000,4.0000,-8.0000,-2.0000,-2.0000,7.0000,0.0000,1
11136.8100,-22.0000,-63.0000,-7.0000,0.0000,2.0000,1.0000,-8.0000,-15.0000,1
11141.8100,9.0000,43.0000,2.0000,-3.0000,-3.0000,-1.0000,-2.0000,-17.0000,1
11146.8100,13.0000,-48.0000,-2.0000,4.0000,1.0000,-2.0000,-15.0000,-32.0000,1
11151.8100,-7.0000,-28.0000,1.0000,1.0000,-3.0000,1.0000,-1.0000,-18.0000,1
11156.8100,-13.0000,97.0000,-2.0000,-4.0000,-4.0000,4.0000,3.0000,-12.0000,1
11161.8100,-25.0000,-75.0000,-5.0000,-5.0000,1.0000,2.0000,8.0000,-13.0000,1
11166.8100,12.0000,32.0000,-1.0000,-1.0000,1.0000,4.0000,1.0000,19.0000,1
11171.8100,-1.0000,-10.0000,0.0000,1.0000,-4.0000,-8.0000,-5.0000,4.0000,1
11176.8100,26.0000,-10.0000,2.0000,-2.0000,-4.0000,-2.0000,0.0000,-52.0000,1
11181.8100,30.0000,-45.0000,-2.0000,4.0000,3.0000,2.0000,1.0000,27.0000,1
11186.8100,5.0000,17.0000,-1.0000,0.0000,-1.0000,2.0000,-2.0000,-4.0000,1
11191.8100,38.0000,79.0000,11.0000,5.0000,1.0000,2.0000,-4.0000,25.0000,1
11196.8100,8.0000,-39.0000,-4.0000,1.0000,1.0000,0.0000,10.0000,-10.0000,1
11201.8100,-8.0000,2.0000,1.0000,0.0000,1.0000,0.0000,2.0000,9.0000,1
11206.8100,-2.0000,75.0000,-1.0000,-5.0000,-4.0000,-4.0000,-9.0000,-62.0000,1
11211.8100,4.0000,-37.0000,-5.0000,0.0000,0.0000,-5.0000,-3.0000,32.0000,1
11216.8100,-16.0000,30.0000,6.0000,2.0000,0.0000,1.0000,1.0000,26.0000,1
11221.8100,-17.0000,2.0000,-2.0000,-2.0000,0.0000,2.0000,1.0000,-67.0000,1
11226.8100,22.0000,-8.0000,-2.0000,1.0000,1.0000,1.0000,-8.0000,8.0000,1
11231.8100,7.0000,-15.0000,-5.0000,-4.0000,-3.0000,3.0000,-4.0000,-40.0000,1
11236.8100,-4.0000,-43.0000,-1.0000,3.0000,0.0000,-5.0000,2.0000,57.0000,1
11241.8100,-19.0000,34.0000,-4.0000,-1.0000,0.0000,1.0000,6.0000,39.0000,1
11246.8100,12.0000,12.0000,4.0000,3.0000,-1.0000,-3.0000,-19.0000,21.0000,1
11251.8100,18.0000,-13.0000,-1.0000,-5.0000,2.0000,5.0000,-5.0000,-9.0000,1
11256.8100,-4.0000,-41.0000,-4.0000,-3.0000,-5.0000,-8.0000,-14.0000,6.0000,1
11261.8100,-61.0000,-26.0000,-3.0000,-6.0000,-3.0000,-5.0000,11.0000,12.0000,1
11266.8100,-52.0000,-14.0000,-3.0000,-8.0000,-5.0000,-4.0000,5.0000,-50.0000,1
11271.8100,-4.0000,24.0000,0.0000,0.0000,3.0000,4.0000,9.0000,35.0000,1
11276.8100,-15.0000,-29.0000,-1.0000,1.0000,-1.0000,3.0000,1.0000,41.0000,1
11281.8100,5.0000,-17.0000,0.0000,-2.0000,-1.0000,-3.0000,-3.0000,-7.0000,1
11286.8100,5.0000,-61.0000,-3.0000,-2.0000,-1.0000,1.0000,6.0000,-5.0000,1
11291.8100,15.0000,37.0000,-2.0000,-4.0000,-5.0000,-1.0000,4.0000,-14.0000,1
11296.8100,-42.0000,16.0000,3.0000,-3.0000,-1.0000,1.0000,2.0000,-18.0000,1
11301.8100,29.0000,20.0000,0.0000,1.0000,-1.0000,4.0000,4.0000,-20.0000,1
11306.8100,10.0000,-14.0000,0.0000,3.0000,0.0000,-9.0000,7.0000,65.0000,1
11311.8100,-7.0000,-24.0000,1.0000,5.0000,3.0000,-1.0000,-10.0000,43.0000,1
11316.8100,-4.0000,13.0000,-9.0000,-3.0000,0.0000,3.0000,1.0000,-52.0000,1
11321.8100,17.0000,-38.0000,4.0000,-1.0000,-1.0000,-1.0000,-8.0000,22.0000,1
11326.8100,-50.0000,48.0000,1.0000,-3.0000,-2.0000,9.0000,16.0000,25.0000,1
11331.8100,-21.0000,-42.0000,-3.0000,-2.0000,-1.0000,-12.0000,-4.0000,29.0000,1
11336.8100,3.0000,61.0000,3.0000,2.0000,0.0000,0.0000,6.0000,15.0000,1
11341.8100,15.0000,-3.0000,2.0000,0.0000,2.0000,-2.0000,-20.0000,4.0000,1
11346.8100,2.0000,1.0000,-2.0000,1.0000,-2.0000,0.0000,7.0000,-2.0000,1
11351.8100,-18.0000,0.0000,-3.0000,-2.0000,-3.0000,-4.0000,1.0000,-41.0000,1
11356.8100,-1.0000,-17.0000,0.0000,-1.0000,-5.0000,-5.0000,0.0000,50.0000,1
11361.8100,-5.0000,-17.0000,-4.0000,-1.0000,4.0000,1.0000,2.0000,-8.0000,1
11366.8100,35.0000,-6.0000,-1.0000,0.0000,3.0000,1.0000,-4.0000,5.0000,1
11371.8100,13.0000,-11.0000,3.0000,3.0000,3.0000,1.0000,5.0000,41.0000,1
11376.8100,36.0000,-2.0000,-1.0000,-2.0000,-3.0000,-8.0000,-1.0000,-40.0000,1
11381.8100,-6.0000,56.0000,1.0000,1.0000,-1.0000,-3.0000,3.0000,3.0000,1
11386.8100,-29.0000,-48.0000,-4.0000,-3.0000,-2.0000,-7.0000,-5.0000,-37.0000,1
11391.8100,-14.0000,-1.0000,1.0000,-1.0000,-2.0000,2.0000,12.0000,-48.0000,1
11402.8300,-8.0000,-24.0000,-2.0000,-4.0000,2.0000,3.0000,-1.0000,-1.0000,1
11407.8300,4.0000,46.0000,1.0000,2.0000,2.0000,6.0000,0.0000,-20.0000,1
11412.8300,-26.0000,3.0000,-1.0000,1.0000,0.0000,0.0000,12.0000,75.0000,1
11417.8300,-5.0000,-46.0000,0.0000,0.0000,1.0000,5.0000,3.0000,-39.0000,1
11422.8300,61.0000,110.0000,3.0000,5.0000,3.0000,-2.0000,-27.0000,24.0000,1
11427.8300,-3.0000,-24.0000,-5.0000,-2.0000,-3.0000,2.0000,3.0000,-14.0000,1
11432.8300,11.0000,-10.0000,4.0000,-3.0000,-4.0000,-7.0000,0.0000,7.0000,1
11437.8300,1.0000,-11.0000,1.0000,-2.0000,-2.0000,2.0000,3.0000,-32.0000,1
11442.8300,9.0000,-42.0000,-5.0000,-5.0000,-6.0000,-7.0000,12.0000,-8.0000,1
11447.8300,9.0000,3.0000,2.0000,3.0000,3.0000,-1.0000,-9.0000,8.0000,1
11452.8300,8.0000,61.0000,2.0000,-2.0000,0.0000,4.0000,-3.0000,-27.0000,1
11457.8300,-25.0000,-58.0000,-1.0000,3.0000,-1.0000,1.0000,5.0000,14.0000,1
11462.8300,10.0000,54.0000,6.0000,-1.0000,2.0000,4.0000,5.0000,4.0000,1
11467.8300,-7.0000,-30.0000,-2.0000,1.0000,-3.0000,-7.0000,2.0000,16.0000,1
11472.8300,16.0000,-8.0000,-4.0000,-5.0000,0.0000,-1.0000,-2.0000,-77.0000,1
11477.8300,-13.0000,2.0000,-1.0000,-1.0000,-2.0000,0.0000,-5.0000,14.0000,1
11482.8300,-20.0000,-2.0000,-1.0000,-1.0000,1.0000,-2.0000,7.0000,21.0000,1
11487.8300,13.0000,-12.0000,0.0000,4.0000,0.0000,1.0000,-5.0000,20.0000,1
11492.8300,14.0000,13.0000,-2.0000,4.0000,3.0000,5.0000,-10.0000,-45.0000,1
11497.8300,15.0000,48.0000,-3.0000,-3.0000,-7.0000,-2.0000,-5.0000,21.0000,1
11502.8300,1.0000,-5.0000,-3.0000,0.0000,-1.0000,-1.0000,-4.0000,-10.0000,1
11507.8300,16.0000,-16.0000,1.0000,-3.0000,-1.0000,1.0000,8.0000,-16.0000,1
11512.8300,-15.0000,20.0000,3.0000,2.0000,-1.0000,-7.0000,-8.0000,19.0000,1
11517.8300,58.0000,0.0000,-5.0000,1.0000,3.0000,4.0000,-7.0000,-34.0000,1
11522.8300,-29.0000,-33.0000,-3.0000,-1.0000,0.0000,5.0000,1.0000,-31.0000,1
11527.8300,-26.0000,-2.0000,-5.0000,-7.0000,-2.0000,-1.0000,-1.0000,-36.0000,1
11532.8300,24.0000,-5.0000,0.0000,4.0000,2.0000,-1.0000,1.0000,14.0000,1
11537.8300,39.0000,-6.0000,0.0000,-1.0000,1.0000,0.0000,2.0000,-18.0000,1
11542.8300,-19.0000,5.0000,3.0000,1.0000,-6.0000,1.0000,-17.0000,3.0000,1
11547.8300,50.0000,-7.0000,-9.0000,1.0000,-2.0000,-4.0000,-11.0000,-22.0000,1
11552.8300,-7.0000,-22.0000,-2.0000,-5.0000,0.0000,6.0000,21.0000,54.0000,1
11557.8300,-25.0000,-4.0000,-4.0000,-3.0000,1.0000,-1.0000,-14.0000,28.0000,1
11562.8300,-11.0000,8.0000,-1.0000,-2.0000,-1.0000,-2.0000,3.0000,8.0000,1
11567.8300,-41.0000,3.0000,1.0000,0.0000,-3.0000,1.0000,7.0000,10.0000,1
11572.8300,10.0000,-7.0000,-2.0000,2.0000,-2.0000,-3.0000,2.0000,34.0000,1
11577.8300,-31.0000,18.0000,-2.0000,-5.0000,-2.0000,-3.0000,-5.0000,-82.0000,1
11582.8300,20.0000,-39.0000,0.0000,1.0000,1.0000,-1.0000,0.0000,60.0000,1
11587.8300,-33.0000,-58.0000,-5.0000,-1.0000,-3.0000,-5.0000,6.0000,0.0000,1
11592.8300,3.0000,94.0000,3.0000,-8.0000,-4.0000,-3.0000,-10.0000,-73.0000,1
11597.8300,-17.0000,-11.0000,-3.0000,-1.0000,2.0000,1.0000,-3.0000,-10.0000,1
11602.8300,-18.0000,-44.0000,4.0000,7.0000,0.0000,-1.0000,11.0000,39.0000,1
11607.8300,-9.0000,18.0000,-1.0000,-1.0000,-2.0000,-1.0000,10.0000,21.0000,1
11612.8300,3.0000,-27.0000,-1.0000,-2.0000,0.0000,-2.0000,-3.0000,15.0000,1
11617.8300,-20.0000,1.0000,0.0000,-1.0000,-2.0000,-1.0000,-9.0000,-8.0000,1
11622.8300,-4.0000,44.0000,-3.0000,-6.0000,-5.0000,1.0000,12.0000,-50.0000,1
11627.8300,1.0000,-5.0000,2.0000,-2.0000,0.0000,0.0000,1.0000,-7.0000,1
11632.8300,63.0000,-89.0000,0.0000,5.0000,1.0000,-8.0000,-16.0000,28.0000,1
11637.8300,-16.0000,62.0000,0.0000,-2.0000,0.0000,-4.0000,-1.0000,9.0000,1
11642.8300,5.0000,-1.0000,2.0000,1.0000,2.0000,3.0000,-1.0000,0.0000,1
11647.8300,30.0000,10.0000,-2.0000,0.0000,-1.0000,-3.0000,-17.0000,-39.0000,1
11652.8300,-20.0000,-31.0000,-7.0000,-1.0000,-3.0000,-2.0000,2.0000,-5.0000,1
11657.8300,6.0000,26.0000,5.0000,2.0000,1.0000,-2.0000,-10.0000,17.0000,1
11662.8300,26.0000,26.0000,-2.0000,0.0000,-1.0000,-2.0000,-3.0000,-42.0000,1
11667.8300,-32.0000,-31.0000,-3.0000,-4.0000,-3.0000,2.0000,5.0000,43.0000,1
11672.8300,7.0000,40.0000,2.0000,-3.0000,-4.0000,2.0000,-9.0000,-32.0000,1
11677.8300,2.0000,12.0000,3.0000,5.0000,1.0000,0.0000,14.0000,36.0000,1
11682.8300,-13.0000,-24.0000,-4.0000,0.0000,-1.0000,1.0000,-4.0000,13.0000,1
11687.8300,-4.0000,-13.0000,1.0000,2.0000,-1.0000,-1.0000,-1.0000,10.0000,1
11692.8300,-59.0000,39.0000,0.0000,-7.0000,-2.0000,0.0000,4.0000,30.0000,1
11697.8300,-39.0000,-30.0000,0.0000,-4.0000,-3.0000,3.0000,7.0000,-20.0000,1
11702.8300,-5.0000,4.0000,-1.0000,-2.0000,4.0000,0.0000,3.0000,19.0000,1
11707.8300,-4.0000,-12.0000,0.0000,-1.0000,-6.0000,2.0000,-9.0000,-6.0000,1
11712.8300,-19.0000,-39.0000,-3.0000,5.0000,-1.0000,-5.0000,-4.0000,17.0000,1
11717.8300,8.0000,1.0000,0.0000,0.0000,-4.0000,-1.0000,12.0000,-11.0000,1
11722.8300,-10.0000,19.0000,2.0000,-1.0000,0.0000,-2.0000,-4.0000,41.0000,1
11727.8300,15.0000,25.0000,-5.0000,1.0000,-1.0000,-4.0000,-10.0000,31.0000,1
11732.8300,-6.0000,-22.0000,-3.0000,0.0000,0.0000,4.0000,10.0000,17.0000,1
11737.8300,1.0000,-22.0000,-4.0000,-3.0000,-5.0000,-4.0000,0.0000,-6.0000,1
11742.8300,-25.0000,-30.0000,-5.0000,-1.0000,-6.0000,5.0000,3.0000,-5.0000,1
11747.8300,10.0000,-3.0000,5.0000,1.0000,-2.0000,-3.0000,15.0000,12.0000,1
11752.8300,-2.0000,16.0000,1.0000,-2.0000,-5.0000,3.0000,-14.0000,10.0000,1
11757.8300,44.0000,-5.0000,-4.0000,1.0000,-5.0000,-1.0000,-7.0000,-17.0000,1
11762.8300,-11.0000,-23.0000,-6.0000,-5.0000,-3.0000,-2.0000,-5.0000,-44.0000,1
11767.8300,-20.0000,-71.0000,2.0000,-2.0000,2.0000,0.0000,0.0000,-38.0000,1
11772.8300,84.0000,65.0000,3.0000,-1.0000,3.0000,-2.0000,-1.0000,-49.0000,1
11777.8300,5.0000,41.0000,2.0000,-1.0000,1.0000,-1.0000,7.0000,-12.0000,1
11782.8300,-10.0000,-6.0000,0.0000,2.0000,4.0000,1.0000,-9.0000,47.0000,1
11787.8300,9.0000,21.0000,0.0000,1.0000,1.0000,-5.0000,-8.0000,-15.0000,1
11792.8300,-10.0000,-17.0000,-1.0000,1.0000,3.0000,5.0000,12.0000,-6.0000,1
11797.8300,-20.0000,-55.0000,-4.0000,-2.0000,3.0000,3.0000,3.0000,37.0000,1
11802.8300,44.0000,-15.0000,-1.0000,-3.0000,-4.0000,-9.0000,-9.0000,-49.0000,1
11807.8300,17.0000,78.0000,-2.0000,-4.0000,2.0000,5.0000,-5.0000,-32.0000,1
11812.8300,-3.0000,-52.0000,1.0000,7.0000,3.0000,-1.0000,0.0000,-5.0000,1
11817.8300,-16.0000,42.0000,-1.0000,-3.0000,-1.0000,-4.0000,-7.0000,-65.0000,1
11822.8300,-11.0000,-45.0000,-3.0000,-2.0000,2.0000,6.0000,4.0000,26.0000,1
11827.8300,13.0000,36.0000,2.0000,-2.0000,2.0000,-6.0000,-10.0000,25.0000,1
11832.8300,-11.0000,-24.0000,1.0000,1.0000,-1.0000,2.0000,6.0000,-2.0000,1
11837.8300,0.0000,-44.0000,-4.0000,-4.0000,1.0000,-6.0000,-5.0000,57.0000,1
11842.8300,0.0000,51.0000,0.0000,6.0000,0.0000,-2.0000,0.0000,-24.0000,1
11847.8300,21.0000,-21.0000,3.0000,0.0000,-2.0000,1.0000,17.0000,-37.0000,1
11852.8300,7.0000,7.0000,-5.0000,-4.0000,1.0000,0.0000,3.0000,-3.0000,1
11857.8300,0.0000,-7.0000,3.0000,1.0000,0.0000,-1.0000,4.0000,20.0000,1
11862.8300,1.0000,-41.0000,-2.0000,-3.0000,-3.0000,-4.0000,6.0000,-3.0000,1
11867.8300,14.0000,75.0000,4.0000,4.0000,4.0000,4.0000,-3.0000,100.0000,1
11872.8300,16.0000,12.0000,-1.0000,6.0000,0.0000,-1.0000,2.0000,33.0000,1
11877.8300,20.0000,13.0000,-6.0000,-1.0000,0.0000,5.0000,-4.0000,-10.0000,1
11882.8300,-9.0000,-16.0000,0.0000,-2.0000,-1.0000,-4.0000,8.0000,-6.0000,1
11887.8300,-16.0000,1.0000,2.0000,0.0000,-1.0000,-3.0000,0.0000,-32.0000,1
11892.8300,-15.0000,-13.0000,-1.0000,-2.0000,-4.0000,0.0000,5.0000,46.0000,1
11897.8300,13.0000,-13.0000,1.0000,0.0000,0.0000,-8.0000,-11.0000,-74.0000,1
11902.8300,-26.0000,23.0000,-4.0000,-9.0000,-2.0000,-1.0000,-8.0000,-60.0000,1
11907.8300,22.0000,-53.0000,-6.0000,0.0000,-2.0000,-3.0000,-5.0000,-4.0000,1
11912.8300,-25.0000,51.0000,-5.0000,-7.0000,2.0000,-1.0000,-1.0000,-5.0000,1
11917.8300,-36.0000,-39.0000,-2.0000,0.0000,1.0000,2.0000,6.0000,33.0000,1
11922.8300,-7.0000,16.0000,2.0000,4.0000,2.0000,4.0000,1.0000,38.0000,1
11927.8300,-7.0000,-50.0000,-5.0000,-5.0000,-3.0000,-6.0000,3.0000,-40.0000,1
11932.8300,2.0000,6.0000,2.0000,-4.0000,-2.0000,-5.0000,-4.0000,-61.0000,1
11937.8300,13.0000,33.0000,2.0000,4.0000,0.0000,-1.0000,-8.0000,70.0000,1
11942.8300,19.0000,-1.0000,-2.0000,1.0000,2.0000,1.0000,6.0000,17.0000,1
11947.8300,-2.0000,-5.0000,-1.0000,0.0000,-1.0000,-4.0000,-2.0000,71.0000,1
11952.8300,17.0000,46.0000,0.0000,3.0000,0.0000,4.0000,-3.0000,6.0000,1
11957.8300,-13.0000,-23.0000,6.0000,1.0000,-1.0000,-1.0000,8.0000,23.0000,1
11962.8300,-9.0000,-6.0000,0.0000,4.0000,2.0000,-4.0000,-15.0000,39.0000,1
11967.8300,4.0000,39.0000,0.0000,0.0000,-2.0000,1.0000,9.0000,66.0000,1
11972.8300,-41.0000,-42.0000,-2.0000,-1.0000,-2.0000,1.0000,0.0000,-5.0000,1
11977.8300,57.0000,-4.0000,-2.0000,6.0000,2.0000,4.0000,-5.0000,-5.0000,1
11982.8300,1.0000,-6.0000,3.0000,-4.0000,-2.0000,-2.0000,5.0000,-24.0000,1
11987.8300,-28.0000,-50.0000,-3.0000,-7.0000,0.0000,7.0000,0.0000,-96.0000,1
11992.8300,33.0000,14.0000,-2.0000,0.0000,1.0000,-4.0000,-17.0000,-27.0000,1
11998.8200,33.0000,14.0000,-2.0000,0.0000,1.0000,-4.0000,-17.0000,-27.0000,1
12003.8200,-10.0000,80.0000,0.0000,3.0000,-1.0000,0.0000,14.0000,41.0000,2
15009.1900,-8.0000,-11.0000,-11.0000,-6.0000,-2.0000,-28.0000,-15.0000,-27.0000,2
15014.1900,6.0000,7.0000,13.0000,32.0000,52.0000,30.0000,15.0000,-5.0000,2
15019.1900,-2.0000,-4.0000,-5.0000,-8.0000,-67.0000,8.0000,-1.0000,-12.0000,2
15024.1900,1.0000,2.0000,-1.0000,-15.0000,-92.0000,15.0000,8.0000,-1.0000,2
15029.2100,5.0000,7.0000,4.0000,-6.0000,62.0000,-3.0000,-7.0000,12.0000,2
15034.2200,-8.0000,-8.0000,-8.0000,5.0000,51.0000,-15.0000,-6.0000,-25.0000,2
15039.2200,2.0000,2.0000,3.0000,3.0000,16.0000,27.0000,-4.0000,-17.0000,2
15044.2200,5.0000,6.0000,2.0000,-15.0000,-3.0000,-16.0000,9.0000,5.0000,2
15049.2200,-5.0000,-2.0000,1.0000,27.0000,59.0000,17.0000,-8.0000,4.0000,2
15054.2200,0.0000,-6.0000,-10.0000,-13.0000,-39.0000,-64.0000,-6.0000,-43.0000,2
15059.2200,3.0000,3.0000,0.0000,-11.0000,-28.0000,25.0000,-3.0000,-1.0000,2
15064.2200,1.0000,-1.0000,3.0000,11.0000,51.0000,-10.0000,-1.0000,23.0000,2
15069.2200,-6.0000,-5.0000,-11.0000,-12.0000,-91.0000,13.0000,-4.0000,-1.0000,2
15074.2200,-1.0000,2.0000,4.0000,-2.0000,5.0000,16.0000,1.0000,23.0000,2
15079.2200,4.0000,5.0000,7.0000,21.0000,62.0000,-15.0000,-1.0000,-30.0000,2
15084.2200,-11.0000,-11.0000,-17.0000,-40.0000,-100.0000,-33.0000,-16.0000,-62.0000,2
15089.2200,-2.0000,-7.0000,-16.0000,-11.0000,-37.0000,-12.0000,-2.0000,0.0000,2
15094.2200,-4.0000,-6.0000,-9.0000,-18.0000,-72.0000,-4.0000,0.0000,21.0000,2
15099.2200,-4.0000,0.0000,0.0000,-11.0000,27.0000,-5.0000,-4.0000,-18.0000,2
15104.2200,2.0000,1.0000,0.0000,24.0000,-12.0000,-15.0000,1.0000,11.0000,2
15109.2200,1.0000,-3.0000,-9.0000,-45.0000,-71.0000,-43.0000,-2.0000,-15.0000,2
15114.2200,4.0000,5.0000,12.0000,26.0000,83.0000,37.0000,8.0000,-15.0000,2
15119.2200,-5.0000,-4.0000,-1.0000,7.0000,-62.0000,-14.0000,-2.0000,15.0000,2
15124.2200,-2.0000,-10.0000,-21.0000,-18.0000,-42.0000,-7.0000,-6.0000,1.0000,2
15129.2200,1.0000,12.0000,20.0000,16.0000,58.0000,6.0000,14.0000,3.0000,2
15134.2200,6.0000,5.0000,4.0000,8.0000,-39.0000,2.0000,12.0000,-8.0000,2
15139.2200,-5.0000,0.0000,-1.0000,18.0000,-34.0000,-10.0000,4.0000,-19.0000,2
15144.2200,0.0000,-7.0000,2.0000,11.0000,127.0000,48.0000,-7.0000,24.0000,2
15149.2200,-9.0000,-15.0000,-22.0000,-20.0000,43.0000,1.0000,-13.0000,4.0000,2
15154.2200,0.0000,6.0000,8.0000,4.0000,61.0000,39.0000,6.0000,4.0000,2
15159.2200,1.0000,1.0000,-5.0000,-13.0000,40.0000,18.0000,0.0000,-15.0000,2
15164.2200,-4.0000,-7.0000,-11.0000,12.0000,-18.0000,-10.0000,-11.0000,-26.0000,2
15169.2200,5.0000,2.0000,5.0000,8.0000,11.0000,-14.0000,2.0000,0.0000,2
15174.2200,-3.0000,-6.0000,-6.0000,-18.0000,16.0000,-5.0000,-8.0000,2.0000,2
15179.2200,-3.0000,-6.0000,-4.0000,-2.0000,65.0000,-35.0000,10.0000,16.0000,2
15184.2200,-7.0000,-5.0000,-8.0000,-15.0000,-28.0000,6.0000,-7.0000,-22.0000,2
15189.2200,5.0000,7.0000,11.0000,30.0000,68.0000,18.0000,8.0000,11.0000,2
15194.2200,-8.0000,1.0000,-4.0000,13.0000,38.0000,9.0000,-11.0000,-11.0000,2
15199.2200,1.0000,8.0000,5.0000,-13.0000,-15.0000,-20.0000,-3.0000,-17.0000,2
15204.2200,-2.0000,-5.0000,-14.0000,-27.0000,-64.0000,-40.0000,5.0000,15.0000,2
15209.2200,-4.0000,-1.0000,1.0000,-13.0000,26.0000,-22.0000,-8.0000,-18.0000,2
15214.2200,-2.0000,-4.0000,-4.0000,0.0000,36.0000,7.0000,-2.0000,29.0000,2
15219.2200,-2.0000,-7.0000,-5.0000,4.0000,-73.0000,-1.0000,-6.0000,-9.0000,2
15224.2200,-2.0000,4.0000,3.0000,6.0000,36.0000,16.0000,5.0000,13.0000,2
15229.2200,1.0000,3.0000,1.0000,-9.0000,-71.0000,-20.0000,-5.0000,-26.0000,2
15234.2200,2.0000,-6.0000,-14.0000,-29.0000,-34.0000,-32.0000,-6.0000,14.0000,2
15239.2200,-2.0000,-2.0000,5.0000,11.0000,32.0000,13.0000,-5.0000,2.0000,2
15244.2200,2.0000,1.0000,-1.0000,9.0000,79.0000,-15.0000,-5.0000,10.0000,2
15249.2200,8.0000,13.0000,22.0000,24.0000,50.0000,18.0000,22.0000,5.0000,2
15254.2200,-6.0000,-5.0000,-2.0000,39.0000,35.0000,22.0000,-7.0000,-16.0000,2
15259.2200,-5.0000,-8.0000,-20.0000,-45.0000,-43.0000,-48.0000,-7.0000,-6.0000,2
15264.2200,8.0000,2.0000,4.0000,-4.0000,-3.0000,37.0000,17.0000,25.0000,2
15269.2200,2.0000,4.0000,10.0000,16.0000,9.0000,-28.0000,2.0000,3.0000,2
15274.2200,1.0000,-1.0000,-2.0000,-4.0000,-72.0000,-1.0000,-4.0000,22.0000,2
15279.2200,-3.0000,-3.0000,-2.0000,-2.0000,-75.0000,1.0000,8.0000,-8.0000,2
15284.2200,-2.0000,0.0000,3.0000,-15.0000,-22.0000,-12.0000,0.0000,-4.0000,2
15289.2200,1.0000,-6.0000,-7.0000,12.0000,63.0000,11.0000,-5.0000,9.0000,2
15294.2200,-1.0000,1.0000,-8.0000,-53.0000,-70.0000,-37.0000,2.0000,5.0000,2
15299.2200,-3.0000,-4.0000,-6.0000,10.0000,45.0000,-10.0000,-2.0000,19.0000,2
15304.2200,-5.0000,1.0000,0.0000,-18.0000,-5.0000,-18.0000,-11.0000,-5.0000,2
15309.2200,-3.0000,-3.0000,0.0000,-2.0000,-8.0000,49.0000,0.0000,8.0000,2
15314.2200,3.0000,8.0000,13.0000,11.0000,107.0000,9.0000,10.0000,-19.0000,2
15319.2200,-4.0000,-8.0000,-17.0000,-20.0000,-1.0000,-64.0000,-7.0000,-3.0000,2
15324.2200,2.0000,4.0000,11.0000,10.0000,3.0000,-6.0000,5.0000,11.0000,2
15329.2200,-4.0000,-7.0000,-14.0000,-3.0000,-66.0000,-9.0000,-5.0000,9.0000,2
15334.2200,-3.0000,-2.0000,-5.0000,-8.0000,-24.0000,1.0000,-10.0000,-67.0000,2
15339.2200,-6.0000,2.0000,5.0000,1.0000,11.0000,27.0000,9.0000,60.0000,2
15344.2200,1.0000,-1.0000,4.0000,15.0000,23.0000,2.0000,-3.0000,-25.0000,2
15349.2200,2.0000,5.0000,7.0000,14.0000,51.0000,18.0000,2.0000,4.0000,2
15354.2200,-9.0000,-12.0000,-16.0000,-16.0000,-23.0000,-53.0000,-15.0000,-9.0000,2
15359.2200,0.0000,0.0000,2.0000,-2.0000,-15.0000,25.0000,-5.0000,-9.0000,2
15364.2200,8.0000,2.0000,7.0000,4.0000,38.0000,-13.0000,9.0000,25.0000,2
15369.2200,-11.0000,-11.0000,-14.0000,8.0000,78.0000,25.0000,-15.0000,-52.0000,2
15374.2200,-1.0000,-2.0000,-5.0000,-9.0000,22.0000,37.0000,5.0000,0.0000,2
15379.2200,2.0000,0.0000,1.0000,-3.0000,10.0000,-12.0000,-8.0000,20.0000,2
15384.2200,-3.0000,-1.0000,-1.0000,15.0000,-3.0000,10.0000,0.0000,-22.0000,2
15389.2200,4.0000,5.0000,4.0000,-11.0000,-4.0000,18.0000,0.0000,-23.0000,2
15394.2200,4.0000,7.0000,18.0000,23.0000,61.0000,5.0000,8.0000,78.0000,2
15399.2200,0.0000,-4.0000,-10.0000,1.0000,-57.0000,18.0000,4.0000,-7.0000,2
15404.2200,1.0000,2.0000,6.0000,4.0000,5.0000,-28.0000,9.0000,10.0000,2
15409.2200,-4.0000,-4.0000,-13.0000,-35.0000,-77.0000,-33.0000,-3.0000,-1.0000,2
15414.2200,-3.0000,-2.0000,-1.0000,15.0000,-6.0000,12.0000,-3.0000,-16.0000,2
15419.2200,8.0000,11.0000,16.0000,15.0000,16.0000,-32.0000,8.0000,32.0000,2
15424.2200,-7.0000,-5.0000,-11.0000,8.0000,25.0000,31.0000,-11.0000,-23.0000,2
15429.2200,2.0000,1.0000,3.0000,4.0000,-22.0000,-22.0000,4.0000,23.0000,2
15434.2200,-2.0000,0.0000,0.0000,-15.0000,-57.0000,16.0000,-4.0000,-1.0000,2
15439.2200,5.0000,5.0000,10.0000,13.0000,99.0000,-6.0000,0.0000,-27.0000,2
15444.2200,-8.0000,-8.0000,-10.0000,0.0000,4.0000,27.0000,-8.0000,-6.0000,2
15449.2200,6.0000,0.0000,2.0000,-7.0000,-52.0000,11.0000,12.0000,24.0000,2
15454.2200,-2.0000,-7.0000,-13.0000,-5.0000,2.0000,-23.0000,-9.0000,-11.0000,2
15459.2200,-4.0000,-5.0000,-7.0000,5.0000,8.0000,0.0000,-6.0000,-15.0000,2
15464.2200,-1.0000,4.0000,12.0000,1.0000,18.0000,19.0000,7.0000,3.0000,2
15469.2200,2.0000,4.0000,7.0000,3.0000,93.0000,28.0000,-3.0000,-6.0000,2
15474.2200,-3.0000,-4.0000,-8.0000,-8.0000,-59.0000,-18.0000,-9.0000,-29.0000,2
15479.2200,2.0000,2.0000,5.0000,-1.0000,-12.0000,32.0000,5.0000,0.0000,2
15484.2200,0.0000,-4.0000,-8.0000,-6.0000,3.0000,-28.0000,-6.0000,-1.0000,2
15489.2200,5.0000,3.0000,5.0000,9.0000,-24.0000,-4.0000,7.0000,-13.0000,2
15494.2200,0.0000,2.0000,9.0000,17.0000,51.0000,35.0000,2.0000,34.0000,2
15499.2200,-3.0000,-7.0000,-17.0000,-26.0000,-26.0000,-41.0000,-6.0000,8.0000,2
15504.2200,-2.0000,0.0000,-3.0000,-10.0000,80.0000,14.0000,-7.0000,-28.0000,2
15509.2200,2.0000,-1.0000,7.0000,15.0000,59.0000,-8.0000,2.0000,23.0000,2
15514.2200,0.0000,3.0000,-3.0000,-4.0000,-49.0000,15.0000,8.0000,-5.0000,2
15519.2200,-5.0000,-10.0000,-7.0000,-11.0000,-9.0000,54.0000,-4.0000,-13.0000,2
15524.2200,4.0000,3.0000,6.0000,-15.0000,-65.0000,6.0000,7.0000,21.0000,2
15529.2200,-4.0000,-6.0000,-8.0000,0.0000,-4.0000,-31.0000,-7.0000,-7.0000,2
15534.2200,-1.0000,-3.0000,0.0000,-6.0000,-30.0000,-13.0000,4.0000,-2.0000,2
15539.2200,5.0000,6.0000,14.0000,24.0000,121.0000,33.0000,2.0000,21.0000,2
15544.2200,1.0000,2.0000,-5.0000,-6.0000,-13.0000,-7.0000,1.0000,-7.0000,2
15549.2200,-4.0000,-3.0000,-4.0000,-18.0000,41.0000,-17.0000,1.0000,12.0000,2
15554.2200,2.0000,1.0000,4.0000,13.0000,94.0000,-9.0000,3.0000,15.0000,2
15559.2200,5.0000,9.0000,6.0000,-3.0000,38.0000,-13.0000,4.0000,-6.0000,2
15564.2200,1.0000,6.0000,4.0000,-3.0000,19.0000,-20.0000,-3.0000,9.0000,2
15569.2200,-5.0000,-6.0000,-11.0000,8.0000,-11.0000,52.0000,-1.0000,-21.0000,2
15574.2200,-1.0000,-4.0000,-5.0000,2.0000,55.0000,-37.0000,-7.0000,-12.0000,2
15579.2200,-5.0000,-1.0000,10.0000,3.0000,10.0000,10.0000,7.0000,7.0000,2
15584.2200,1.0000,-3.0000,1.0000,13.0000,26.0000,-27.0000,0.0000,7.0000,2
15589.2200,4.0000,-3.0000,-7.0000,-33.0000,-91.0000,22.0000,0.0000,35.0000,2
15594.2200,5.0000,1.0000,6.0000,11.0000,50.0000,14.0000,5.0000,5.0000,2
15599.2200,-11.0000,3.0000,-2.0000,5.0000,-67.0000,0.0000,2.0000,-3.0000,2
15604.2200,2.0000,2.0000,0.0000,5.0000,-40.0000,50.0000,3.0000,-29.0000,2
15609.2200,-2.0000,-2.0000,-4.0000,-1.0000,-54.0000,-68.0000,-3.0000,6.0000,2
15614.2200,5.0000,5.0000,6.0000,4.0000,39.0000,14.0000,-4.0000,7.0000,2
15619.2200,-4.0000,-6.0000,-1.0000,-3.0000,7.0000,-8.0000,-9.0000,-29.0000,2
15624.2200,1.0000,2.0000,5.0000,33.0000,37.0000,3.0000,4.0000,24.0000,2
15629.2200,-3.0000,-3.0000,-2.0000,-5.0000,26.0000,-12.0000,0.0000,-24.0000,2
15634.2200,-1.0000,2.0000,6.0000,-8.0000,98.0000,32.0000,6.0000,30.0000,2
15639.2200,-1.0000,-4.0000,-8.0000,1.0000,54.0000,21.0000,-5.0000,7.0000,2
15644.2200,-6.0000,-1.0000,2.0000,-7.0000,-49.0000,-30.0000,-2.0000,1.0000,2
15649.2200,7.0000,9.0000,11.0000,12.0000,-38.0000,34.0000,11.0000,1.0000,2
15654.2200,-4.0000,-3.0000,-7.0000,-4.0000,-86.0000,-25.0000,-5.0000,11.0000,2
15659.2200,4.0000,1.0000,0.0000,0.0000,10.0000,-16.0000,0.0000,11.0000,2
15664.2200,5.0000,2.0000,1.0000,-2.0000,-4.0000,13.0000,1.0000,29.0000,2
15669.2200,-9.0000,2.0000,1.0000,-1.0000,-29.0000,-4.0000,5.0000,-5.0000,2
15681.2000,-3.0000,0.0000,-2.0000,-19.0000,25.0000,-4.0000,-7.0000,-39.0000,2
15686.2000,4.0000,3.0000,7.0000,11.0000,81.0000,-23.0000,4.0000,-5.0000,2
15691.2000,4.0000,3.0000,7.0000,11.0000,81.0000,-23.0000,4.0000,-5.0000,2
15696.2000,1.0000,0.0000,0.0000,-2.0000,23.0000,0.0000,-5.0000,9.0000,2
15701.2000,1.0000,6.0000,6.0000,10.0000,20.0000,-35.0000,-1.0000,-4.0000,2
15706.2000,-4.0000,-4.0000,-9.0000,-17.0000,-30.0000,-10.0000,-7.0000,-25.0000,2
15711.2000,-5.0000,-7.0000,-13.0000,-14.0000,50.0000,-6.0000,-9.0000,4.0000,2
15716.2000,-1.0000,-1.0000,2.0000,5.0000,57.0000,-21.0000,-5.0000,-6.0000,2
15721.2000,2.0000,-1.0000,-4.0000,-12.0000,14.0000,-2.0000,-5.0000,-2.0000,2
15726.2000,1.0000,-2.0000,1.0000,15.0000,-4.0000,17.0000,3.0000,3.0000,2
15731.2000,-2.0000,-5.0000,-2.0000,-4.0000,61.0000,-44.0000,-3.0000,-1.0000,2
15736.2000,4.0000,6.0000,15.0000,33.0000,79.0000,7.0000,6.0000,4.0000,2
15741.2000,3.0000,0.0000,1.0000,-11.0000,-45.0000,22.0000,4.0000,5.0000,2
15746.2000,-1.0000,-9.0000,-9.0000,-10.0000,1.0000,-13.0000,-18.0000,10.0000,2
15751.2000,-12.0000,-1.0000,-3.0000,6.0000,28.0000,13.0000,-2.0000,-29.0000,2
15756.2000,5.0000,8.0000,7.0000,8.0000,-54.0000,7.0000,8.0000,54.0000,2
15761.2000,0.0000,-3.0000,-4.0000,-11.0000,-90.0000,-22.0000,6.0000,-16.0000,2
15766.2000,-4.0000,-3.0000,-5.0000,11.0000,73.0000,13.0000,-1.0000,-19.0000,2
15771.2000,7.0000,6.0000,9.0000,15.0000,16.0000,8.0000,-2.0000,19.0000,2
15776.2000,-1.0000,-1.0000,-7.0000,-12.0000,-33.0000,-10.0000,-3.0000,-27.0000,2
15781.2000,-7.0000,-3.0000,-10.0000,-14.0000,42.0000,13.0000,-9.0000,-12.0000,2
15786.2000,-2.0000,1.0000,-1.0000,-18.0000,-104.0000,-17.0000,8.0000,3.0000,2
15791.2000,4.0000,4.0000,13.0000,15.0000,1.0000,-7.0000,5.0000,30.0000,2
15796.2000,-3.0000,-7.0000,-10.0000,-1.0000,-49.0000,36.0000,-5.0000,-22.0000,2
15801.2000,-5.0000,-1.0000,0.0000,0.0000,32.0000,10.0000,-1.0000,-23.0000,2
15806.2000,0.0000,4.0000,3.0000,-10.0000,1.0000,7.0000,2.0000,9.0000,2
15811.2000,2.0000,1.0000,3.0000,14.0000,78.0000,30.0000,-5.0000,-5.0000,2
15816.2000,3.0000,2.0000,2.0000,22.0000,-39.0000,-19.0000,3.0000,18.0000,2
15821.2000,-12.0000,-9.0000,-14.0000,-28.0000,-87.0000,0.0000,-6.0000,-47.0000,2
15826.2000,8.0000,5.0000,12.0000,22.0000,87.0000,31.0000,8.0000,23.0000,2
15831.2000,1.0000,-2.0000,-5.0000,-20.0000,-43.0000,6.0000,15.0000,15.0000,2
15836.2000,-7.0000,-12.0000,-11.0000,6.0000,44.0000,-23.0000,-17.0000,-26.0000,2
15841.2000,3.0000,0.0000,4.0000,-2.0000,67.0000,0.0000,-1.0000,-2.0000,2
15846.2000,-3.0000,1.0000,-1.0000,-9.0000,39.0000,22.0000,3.0000,24.0000,2
15851.2000,0.0000,-1.0000,-1.0000,8.0000,26.0000,2.0000,-7.0000,-31.0000,2
15856.2000,7.0000,11.0000,10.0000,11.0000,13.0000,-14.0000,14.0000,56.0000,2
15861.2000,-5.0000,-5.0000,2.0000,22.0000,62.0000,15.0000,-3.0000,-33.0000,2
15866.2000,-8.0000,-8.0000,-15.0000,-39.0000,-82.0000,-68.0000,-2.0000,-28.0000,2
15871.2000,7.0000,-1.0000,12.0000,12.0000,93.0000,7.0000,2.0000,19.0000,2
15876.2000,-5.0000,-10.0000,-13.0000,-27.0000,15.0000,10.0000,-4.0000,-18.0000,2
15881.2000,-4.0000,-3.0000,-4.0000,1.0000,-104.0000,-14.0000,-3.0000,6.0000,2
15886.2000,-5.0000,-5.0000,-7.0000,2.0000,49.0000,-11.0000,-9.0000,-1.0000,2
15891.2000,2.0000,6.0000,3.0000,26.0000,24.0000,24.0000,3.0000,-7.0000,2
15896.2000,-21.0000,-16.0000,-24.0000,-48.0000,-85.0000,-8.0000,-3.0000,-38.0000,2
15901.2000,-4.0000,-6.0000,-14.0000,1.0000,-84.0000,-31.0000,-2.0000,13.0000,2
15906.2000,2.0000,1.0000,3.0000,1.0000,33.0000,-38.0000,7.0000,12.0000,2
15911.2000,-1.0000,-1.0000,-5.0000,-10.0000,27.0000,1.0000,-6.0000,15.0000,2
15916.2000,7.0000,6.0000,9.0000,0.0000,-46.0000,28.0000,3.0000,-26.0000,2
15921.2000,-1.0000,-3.0000,-2.0000,7.0000,4.0000,7.0000,-3.0000,21.0000,2
15926.2000,-1.0000,1.0000,3.0000,0.0000,40.0000,21.0000,-8.0000,-12.0000,2
15931.2000,-3.0000,-4.0000,-8.0000,3.0000,-57.0000,-26.0000,-6.0000,1.0000,2
15936.2000,-1.0000,0.0000,1.0000,-12.0000,0.0000,17.0000,5.0000,7.0000,2
15941.2000,6.0000,7.0000,10.0000,5.0000,-25.0000,-26.0000,9.0000,46.0000,2
15946.2000,2.0000,4.0000,4.0000,10.0000,-75.0000,10.0000,5.0000,1.0000,2
15951.2000,1.0000,-1.0000,-3.0000,-3.0000,-16.0000,28.0000,5.0000,-1.0000,2
15956.2000,2.0000,4.0000,3.0000,-4.0000,83.0000,-33.0000,-9.0000,1.0000,2
15961.2000,3.0000,5.0000,9.0000,34.0000,118.0000,26.0000,4.0000,8.0000,2
15966.2000,-2.0000,-5.0000,-6.0000,-10.0000,94.0000,41.0000,2.0000,-1.0000,2
15971.2000,-11.0000,-13.0000,-18.0000,-24.0000,-15.0000,-29.0000,-22.0000,-5.0000,2
15976.2000,9.0000,4.0000,10.0000,1.0000,-51.0000,27.0000,15.0000,-19.0000,2
15981.2000,3.0000,4.0000,3.0000,-12.0000,30.0000,-17.0000,0.0000,12.0000,2
15986.2000,0.0000,-6.0000,-7.0000,-9.0000,-91.0000,29.0000,2.0000,-30.0000,2
15991.2000,1.0000,-1.0000,-2.0000,-12.0000,-20.0000,-57.0000,0.0000,-7.0000,2
15996.2000,5.0000,3.0000,4.0000,11.0000,29.0000,32.0000,3.0000,31.0000,2
16001.2000,-1.0000,-3.0000,-10.0000,-15.0000,-48.0000,-13.0000,-6.0000,-20.0000,2
16006.2000,-5.0000,-2.0000,2.0000,14.0000,-14.0000,12.0000,-5.0000,-28.0000,2
16011.2000,-2.0000,2.0000,-1.0000,-21.0000,-77.0000,-1.0000,4.0000,18.0000,2
16016.2000,-5.0000,-4.0000,-6.0000,2.0000,-38.0000,-16.0000,-4.0000,-16.0000,2
16021.2000,7.0000,1.0000,4.0000,-3.0000,64.0000,8.0000,5.0000,-12.0000,2
16026.2000,-3.0000,-2.0000,-8.0000,-8.0000,-70.0000,-21.0000,3.0000,39.0000,2
16031.2000,-1.0000,0.0000,1.0000,-4.0000,-11.0000,30.0000,5.0000,-32.0000,2
16036.2000,1.0000,6.0000,6.0000,-6.0000,34.0000,-52.0000,-6.0000,37.0000,2
16041.2000,7.0000,9.0000,16.0000,23.0000,117.0000,42.0000,14.0000,-3.0000,2
16046.2000,-4.0000,-7.0000,-6.0000,4.0000,-23.0000,-26.0000,-8.0000,-14.0000,2
16051.2000,-1.0000,-4.0000,-5.0000,-10.0000,16.0000,8.0000,-3.0000,-6.0000,2
16056.2000,-2.0000,-3.0000,3.0000,15.0000,10.0000,5.0000,6.0000,-2.0000,2
16061.2000,0.0000,-1.0000,-4.0000,-15.0000,-60.0000,-7.0000,-1.0000,9.0000,2
16066.2000,5.0000,2.0000,2.0000,13.0000,28.0000,-13.0000,-2.0000,30.0000,2
16071.2000,-3.0000,0.0000,-1.0000,-19.0000,-69.0000,-57.0000,-1.0000,-54.0000,2
16076.2600,-7.0000,-2.0000,1.0000,22.0000,2.0000,-5.0000,0.0000,38.0000,2
16081.2600,-5.0000,-7.0000,-16.0000,-39.0000,-68.0000,-5.0000,-8.0000,-35.0000,2
16086.2600,0.0000,3.0000,5.0000,-1.0000,31.0000,-17.0000,10.0000,-9.0000,2
16091.2600,0.0000,-2.0000,3.0000,35.0000,69.0000,11.0000,-7.0000,50.0000,2
16096.2600,3.0000,1.0000,1.0000,0.0000,28.0000,19.0000,2.0000,-11.0000,2
16101.2600,-6.0000,-4.0000,6.0000,17.0000,32.0000,-3.0000,-1.0000,-3.0000,2
16106.2600,2.0000,0.0000,-2.0000,-3.0000,6.0000,5.0000,-2.0000,0.0000,2
16111.2600,-2.0000,1.0000,-1.0000,4.0000,-48.0000,11.0000,10.0000,33.0000,2
16116.2600,3.0000,5.0000,7.0000,23.0000,61.0000,17.0000,1.0000,-31.0000,2
16121.2600,-1.0000,4.0000,-4.0000,-25.0000,21.0000,-6.0000,-5.0000,1.0000,2
16126.2600,3.0000,1.0000,3.0000,3.0000,57.0000,16.0000,5.0000,12.0000,2
16131.2600,1.0000,3.0000,11.0000,30.0000,102.0000,41.0000,3.0000,-2.0000,2
16136.2600,0.0000,-5.0000,-4.0000,4.0000,12.0000,-50.0000,0.0000,22.0000,2
16141.2600,3.0000,5.0000,1.0000,-15.0000,31.0000,23.0000,-2.0000,-10.0000,2
16146.2600,-4.0000,0.0000,0.0000,17.0000,23.0000,11.0000,1.0000,-22.0000,2
16151.2600,-7.0000,-10.0000,-15.0000,-25.0000,-1.0000,-25.0000,-14.0000,-7.0000,2
16156.2600,1.0000,5.0000,6.0000,1.0000,53.0000,14.0000,-1.0000,22.0000,2
16161.2600,1.0000,-3.0000,2.0000,10.0000,-18.0000,-5.0000,0.0000,-9.0000,2
16166.2600,2.0000,8.0000,9.0000,-1.0000,51.0000,-2.0000,0.0000,-13.0000,2
16171.2600,-8.0000,-10.0000,-22.0000,-24.0000,-41.0000,-15.0000,-16.0000,-4.0000,2
16176.2600,-1.0000,2.0000,3.0000,1.0000,83.0000,-23.0000,5.0000,-13.0000,2
16181.2600,-4.0000,-12.0000,-15.0000,-11.0000,-93.0000,-34.0000,-11.0000,8.0000,2
16186.2600,-3.0000,-6.0000,-5.0000,-7.0000,34.0000,-7.0000,-1.0000,-2.0000,2
16191.2600,0.0000,3.0000,4.0000,2.0000,0.0000,9.0000,6.0000,5.0000,2
16196.2600,2.0000,3.0000,-2.0000,-26.0000,-46.0000,7.0000,-3.0000,-3.0000,2
16201.2600,-5.0000,-4.0000,-6.0000,26.0000,-30.0000,-6.0000,4.0000,14.0000,2
16206.2600,-2.0000,-1.0000,-2.0000,-14.0000,14.0000,-13.0000,-10.0000,-10.0000,2
16211.2600,1.0000,-2.0000,3.0000,16.0000,43.0000,-15.0000,6.0000,26.0000,2
16216.2600,1.0000,-2.0000,3.0000,16.0000,43.0000,-15.0000,6.0000,26.0000,2
16221.2600,-3.0000,-7.0000,-11.0000,3.0000,-51.0000,-9.0000,-10.0000,-13.0000,2
16226.2600,-3.0000,-2.0000,-6.0000,-15.0000,-37.0000,19.0000,5.0000,22.0000,2
16231.2600,5.0000,6.0000,17.0000,26.0000,12.0000,46.0000,-1.0000,-26.0000,2
16236.2600,-13.0000,-14.0000,-30.0000,-57.0000,-39.0000,-71.0000,-23.0000,-20.0000,2
16241.2600,1.0000,3.0000,11.0000,22.0000,123.0000,8.0000,5.0000,17.0000,2
16246.2600,5.0000,7.0000,10.0000,7.0000,37.0000,24.0000,4.0000,-3.0000,2
16251.2600,8.0000,8.0000,8.0000,1.0000,30.0000,17.0000,3.0000,-19.0000,2
16256.2600,-6.0000,-4.0000,-9.0000,-9.0000,-74.0000,-27.0000,-10.0000,-2.0000,2
16261.2600,1.0000,4.0000,1.0000,-6.0000,34.0000,65.0000,11.0000,26.0000,2
16266.2600,-4.0000,-5.0000,-5.0000,-3.0000,41.0000,-42.0000,-12.0000,-25.0000,2
16271.2600,4.0000,2.0000,7.0000,18.0000,73.0000,-5.0000,1.0000,-7.0000,2
16276.2600,3.0000,2.0000,4.0000,12.0000,2.0000,-19.0000,3.0000,3.0000,2
16281.2600,-4.0000,1.0000,2.0000,2.0000,55.0000,-14.0000,-5.0000,-3.0000,2
16286.2600,3.0000,-3.0000,1.0000,5.0000,-56.0000,10.0000,1.0000,8.0000,2
16291.2600,-5.0000,-1.0000,-1.0000,-1.0000,4.0000,8.0000,2.0000,-5.0000,2
16296.2600,1.0000,2.0000,5.0000,22.0000,85.0000,46.0000,0.0000,-4.0000,2
16301.2600,-10.0000,-8.0000,-20.0000,-40.0000,-58.0000,-69.0000,-14.0000,-11.0000,2
16306.2600,1.0000,4.0000,5.0000,-6.0000,50.0000,1.0000,5.0000,7.0000,2
16311.2600,-6.0000,-13.0000,-23.0000,-34.0000,-91.0000,-46.0000,-17.0000,-11.0000,2
16316.2600,8.0000,8.0000,18.0000,37.0000,87.0000,62.0000,13.0000,-3.0000,2
16321.2600,9.0000,4.0000,9.0000,13.0000,4.0000,22.0000,1.0000,-5.0000,2
16326.2600,8.0000,7.0000,7.0000,9.0000,-71.0000,14.0000,5.0000,13.0000,2
16331.2600,-13.0000,-17.0000,-27.0000,-31.0000,-52.0000,-29.0000,-13.0000,-2.0000,2
16336.2600,-13.0000,1.0000,8.0000,7.0000,42.0000,40.0000,1.0000,9.0000,2
16341.2600,34.0000,4.0000,-1.0000,-9.0000,-5.0000,3.0000,0.0000,-54.0000,2
16346.2600,-8.0000,1.0000,2.0000,1.0000,39.0000,37.0000,6.0000,71.0000,2
16351.2600,7.0000,5.0000,8.0000,15.0000,92.0000,3.0000,-1.0000,-10.0000,2
16356.2700,4.0000,-4.0000,-10.0000,-26.0000,-97.0000,-14.0000,-1.0000,-3.0000,2
16361.2700,-6.0000,0.0000,2.0000,-2.0000,5.0000,-3.0000,4.0000,-3.0000,2
16366.2700,2.0000,-1.0000,2.0000,6.0000,17.0000,-38.0000,-9.0000,-11.0000,2
16371.2700,1.0000,4.0000,7.0000,-8.0000,-6.0000,13.0000,14.0000,7.0000,2
16376.2700,1.0000,-3.0000,-2.0000,9.0000,-21.0000,16.0000,1.0000,15.0000,2
16381.2700,-8.0000,-2.0000,0.0000,1.0000,30.0000,6.0000,4.0000,11.0000,2
16386.2700,2.0000,-3.0000,-8.0000,-24.0000,-44.0000,-21.0000,5.0000,-18.0000,2
16391.2700,-7.0000,0.0000,1.0000,2.0000,24.0000,0.0000,1.0000,23.0000,2
16396.2700,-2.0000,-2.0000,-3.0000,9.0000,-10.0000,16.0000,-1.0000,-32.0000,2
16401.2700,0.0000,7.0000,12.0000,9.0000,66.0000,-10.0000,3.0000,20.0000,2
16406.2700,-6.0000,-6.0000,-7.0000,18.0000,3.0000,26.0000,0.0000,-17.0000,2
16411.2700,-8.0000,-16.0000,-30.0000,-38.0000,-103.0000,-6.0000,-14.0000,3.0000,2
16416.2700,-2.0000,2.0000,1.0000,1.0000,17.0000,6.0000,0.0000,-34.0000,2
16421.2700,-1.0000,7.0000,9.0000,16.0000,-23.0000,3.0000,2.0000,15.0000,2
16426.2700,1.0000,0.0000,-3.0000,2.0000,18.0000,-8.0000,0.0000,8.0000,2
16431.2700,-7.0000,2.0000,5.0000,2.0000,-56.0000,24.0000,6.0000,-16.0000,2
16436.2700,4.0000,-4.0000,-4.0000,-1.0000,-6.0000,-26.0000,-4.0000,8.0000,2
16441.2700,-12.0000,-9.0000,-11.0000,-16.0000,-69.0000,-37.0000,-14.0000,-17.0000,2
16446.2700,3.0000,0.0000,0.0000,0.0000,-40.0000,-12.0000,-3.0000,-32.0000,2
16451.2700,6.0000,5.0000,9.0000,2.0000,-5.0000,11.0000,13.0000,-2.0000,2
16456.2700,-1.0000,1.0000,-2.0000,-6.0000,-12.0000,-21.0000,-2.0000,18.0000,2
16461.2700,0.0000,6.0000,8.0000,19.0000,108.0000,24.0000,1.0000,13.0000,2
16466.2700,-7.0000,-4.0000,-4.0000,-8.0000,12.0000,22.0000,2.0000,19.0000,2
16471.2700,8.0000,4.0000,8.0000,11.0000,35.0000,5.0000,1.0000,-38.0000,2
16476.2700,-7.0000,-10.0000,-13.0000,-3.0000,-12.0000,-13.0000,1.0000,-10.0000,2
16481.2700,-1.0000,-4.0000,-2.0000,-3.0000,13.0000,2.0000,-7.0000,4.0000,2
16486.2700,-6.0000,-6.0000,-5.0000,2.0000,110.0000,4.0000,-15.0000,-13.0000,2
16491.2700,-1.0000,1.0000,9.0000,25.0000,65.0000,-3.0000,2.0000,11.0000,2
16496.2700,7.0000,4.0000,6.0000,-1.0000,-16.0000,7.0000,6.0000,22.0000,2
16501.2700,-2.0000,2.0000,-1.0000,6.0000,26.0000,42.0000,0.0000,-12.0000,2
16506.2700,0.0000,9.0000,14.0000,24.0000,72.0000,-22.0000,5.0000,12.0000,2
16511.2700,8.0000,-3.0000,-10.0000,-4.0000,46.0000,-14.0000,-5.0000,36.0000,2
16516.2700,-9.0000,0.0000,0.0000,0.0000,79.0000,32.0000,0.0000,-49.0000,2
16521.2700,1.0000,-4.0000,-2.0000,-4.0000,3.0000,-28.0000,-4.0000,9.0000,2
16526.2700,-4.0000,-2.0000,-1.0000,1.0000,-53.0000,-4.0000,-2.0000,-22.0000,2
16531.2700,9.0000,-1.0000,-5.0000,-19.0000,-70.0000,3.0000,-6.0000,-11.0000,2
16536.2700,-4.0000,-2.0000,-1.0000,7.0000,-1.0000,-13.0000,3.0000,28.0000,2
16541.2700,-4.0000,-2.0000,1.0000,3.0000,-29.0000,19.0000,1.0000,-27.0000,2
16546.2700,-5.0000,-5.0000,-11.0000,-13.0000,32.0000,-32.0000,-6.0000,-47.0000,2
16555.7900,-5.0000,-5.0000,-11.0000,-13.0000,32.0000,-32.0000,-6.0000,-47.0000,2
16560.7900,-2.0000,3.0000,6.0000,-1.0000,41.0000,33.0000,1.0000,27.0000,2
16565.7900,-1.0000,-1.0000,-6.0000,-14.0000,-24.0000,-7.0000,6.0000,7.0000,2
16570.7900,1.0000,0.0000,0.0000,1.0000,18.0000,19.0000,1.0000,12.0000,2
16575.7900,3.0000,8.0000,12.0000,20.0000,23.0000,-37.0000,1.0000,-7.0000,2
16580.7900,-14.0000,-19.0000,-39.0000,-89.0000,-73.0000,-69.0000,-27.0000,-11.0000,2
16585.7900,0.0000,-1.0000,9.0000,35.0000,127.0000,-4.0000,11.0000,16.0000,2
16590.7900,1.0000,-3.0000,-7.0000,-5.0000,-2.0000,-10.0000,-13.0000,-25.0000,2
16595.7900,9.0000,10.0000,13.0000,6.0000,38.0000,21.0000,16.0000,22.0000,2
16600.7900,4.0000,-8.0000,-4.0000,7.0000,-92.0000,15.0000,0.0000,37.0000,2
16605.7900,-3.0000,-1.0000,-2.0000,2.0000,-20.0000,-26.0000,2.0000,9.0000,2
16610.7900,-2.0000,-4.0000,-4.0000,-14.0000,-66.0000,35.0000,-1.0000,0.0000,2
16615.7900,-9.0000,-4.0000,-7.0000,-2.0000,10.0000,-5.0000,-6.0000,-23.0000,2
16620.7900,9.0000,7.0000,15.0000,22.0000,72.0000,16.0000,9.0000,15.0000,2
16625.7900,5.0000,0.0000,2.0000,-8.0000,-16.0000,6.0000,6.0000,0.0000,2
16630.7900,-13.0000,-9.0000,-13.0000,-20.0000,-47.0000,-15.0000,-4.0000,1.0000,2
16635.7900,0.0000,0.0000,4.0000,9.0000,42.0000,5.0000,2.0000,16.0000,2
16640.7900,3.0000,10.0000,12.0000,24.0000,76.0000,38.0000,8.0000,0.0000,2
16645.7900,-6.0000,-11.0000,-21.0000,-27.0000,-70.0000,-14.0000,-7.0000,-8.0000,2
16650.7900,3.0000,0.0000,2.0000,-12.0000,9.0000,7.0000,-2.0000,14.0000,2
16655.7900,-4.0000,-4.0000,-8.0000,-17.0000,-74.0000,-35.0000,-2.0000,-20.0000,2
16660.7900,-2.0000,2.0000,5.0000,6.0000,70.0000,55.0000,1.0000,-1.0000,2
16665.7900,-1.0000,4.0000,3.0000,-9.0000,-54.0000,-18.0000,-10.0000,-19.0000,2
16670.7900,0.0000,-4.0000,-7.0000,23.0000,97.0000,6.0000,-4.0000,15.0000,2
16675.7900,-7.0000,-8.0000,-13.0000,-7.0000,-128.0000,-23.0000,3.0000,7.0000,2
16680.7900,5.0000,6.0000,12.0000,17.0000,69.0000,42.0000,3.0000,-29.0000,2
16685.7900,6.0000,1.0000,-1.0000,-9.0000,-7.0000,-7.0000,-3.0000,-6.0000,2
16690.7900,-6.0000,-1.0000,6.0000,23.0000,36.0000,-18.0000,3.0000,14.0000,2
16695.7900,8.0000,1.0000,2.0000,-1.0000,-8.0000,4.0000,1.0000,31.0000,2
16700.7900,0.0000,-3.0000,-10.0000,-11.0000,-90.0000,-79.0000,-2.0000,-25.0000,2
16705.7900,1.0000,1.0000,4.0000,2.0000,2.0000,38.0000,7.0000,13.0000,2
16710.7900,5.0000,-3.0000,-1.0000,6.0000,-30.0000,0.0000,-1.0000,-9.0000,2
16715.7900,-2.0000,2.0000,0.0000,-4.0000,74.0000,-8.0000,-1.0000,0.0000,2
16720.7900,3.0000,6.0000,12.0000,21.0000,94.0000,38.0000,-7.0000,3.0000,2
16725.7900,-3.0000,-4.0000,-5.0000,-2.0000,-87.0000,-30.0000,-7.0000,6.0000,2
16730.7900,5.0000,7.0000,13.0000,7.0000,37.0000,24.0000,9.0000,11.0000,2
16735.7900,-7.0000,-11.0000,-9.0000,1.0000,-22.0000,-23.0000,-8.0000,-18.0000,2
16740.7900,2.0000,-2.0000,-2.0000,-10.0000,-37.0000,-17.0000,7.0000,7.0000,2
16745.7900,-2.0000,3.0000,1.0000,-4.0000,-37.0000,86.0000,6.0000,0.0000,2
16750.7900,1.0000,2.0000,-8.0000,-28.0000,2.0000,4.0000,-2.0000,-3.0000,2
16755.7900,-1.0000,4.0000,7.0000,20.0000,50.0000,39.0000,1.0000,-1.0000,2
16760.7900,3.0000,3.0000,3.0000,1.0000,26.0000,-1.0000,7.0000,13.0000,2
16765.7900,-12.0000,-21.0000,-27.0000,-47.0000,-31.0000,-85.0000,-11.0000,-8.0000,2
16770.7900,2.0000,2.0000,8.0000,3.0000,1.0000,14.0000,7.0000,-11.0000,2
16775.7900,4.0000,0.0000,-1.0000,-1.0000,63.0000,26.0000,0.0000,24.0000,2
16780.7900,-2.0000,0.0000,-2.0000,0.0000,0.0000,10.0000,2.0000,6.0000,2
16785.7900,0.0000,8.0000,10.0000,16.0000,39.0000,34.0000,7.0000,2.0000,2
16790.7900,6.0000,-4.0000,-6.0000,-13.0000,-35.0000,-22.0000,-6.0000,-11.0000,2
16795.7900,-16.0000,-10.0000,-8.0000,2.0000,22.0000,-56.0000,-10.0000,-43.0000,2
16800.7900,5.0000,4.0000,8.0000,16.0000,26.0000,24.0000,0.0000,-8.0000,2
16805.7900,1.0000,3.0000,6.0000,21.0000,29.0000,-39.0000,-3.0000,38.0000,2
16810.7900,1.0000,-2.0000,-7.0000,5.0000,-18.0000,5.0000,-5.0000,-9.0000,2
16815.7900,-8.0000,-1.0000,-7.0000,-16.0000,-19.0000,7.0000,3.0000,-15.0000,2
16820.7900,6.0000,3.0000,0.0000,-3.0000,32.0000,-8.0000,0.0000,4.0000,2
16825.7900,3.0000,-1.0000,0.0000,9.0000,-60.0000,73.0000,8.0000,18.0000,2
16830.7900,4.0000,3.0000,7.0000,-2.0000,47.0000,-28.0000,1.0000,4.0000,2
16835.7900,-1.0000,0.0000,-1.0000,22.0000,77.0000,14.0000,-5.0000,10.0000,2
16840.7900,-3.0000,-5.0000,-8.0000,-29.0000,-93.0000,-27.0000,-6.0000,11.0000,2
16845.7900,1.0000,1.0000,2.0000,16.0000,98.0000,28.0000,3.0000,-8.0000,2
16850.7900,2.0000,2.0000,2.0000,-12.0000,-54.0000,24.0000,6.0000,0.0000,2
16855.7900,6.0000,4.0000,9.0000,-9.0000,-25.0000,26.0000,3.0000,-10.0000,2
16860.7900,-1.0000,-6.0000,-10.0000,-4.0000,-57.0000,-17.0000,-5.0000,9.0000,2
16865.7900,-2.0000,5.0000,10.0000,16.0000,52.0000,-15.0000,4.0000,-16.0000,2
16870.7900,-4.0000,0.0000,-2.0000,0.0000,40.0000,6.0000,-3.0000,14.0000,2
16875.7900,-1.0000,-2.0000,-3.0000,-19.0000,-101.0000,27.0000,1.0000,-12.0000,2
16880.7900,0.0000,-4.0000,-6.0000,3.0000,-46.0000,-8.0000,-1.0000,-2.0000,2
16885.7900,1.0000,-6.0000,-5.0000,-22.0000,-60.0000,-20.0000,-5.0000,2.0000,2
16890.7900,9.0000,12.0000,15.0000,15.0000,56.0000,9.0000,6.0000,12.0000,2
16895.7900,0.0000,1.0000,5.0000,27.0000,76.0000,5.0000,-1.0000,10.0000,2
16900.7900,-8.0000,2.0000,4.0000,-6.0000,-14.0000,-27.0000,0.0000,6.0000,2
16905.7900,1.0000,-8.0000,-15.0000,-13.0000,89.0000,18.0000,-4.0000,-5.0000,2
16910.7900,-1.0000,2.0000,4.0000,-4.0000,-91.0000,8.0000,6.0000,5.0000,2
16915.7900,-6.0000,-9.0000,-11.0000,-15.0000,-62.0000,-52.0000,-11.0000,-20.0000,2
16920.7900,-2.0000,0.0000,4.0000,3.0000,28.0000,44.0000,11.0000,8.0000,2
16925.7900,0.0000,5.0000,8.0000,13.0000,78.0000,-12.0000,2.0000,-1.0000,2
16930.7900,-7.0000,-8.0000,-12.0000,-18.0000,-59.0000,5.0000,-8.0000,8.0000,2
16935.7900,5.0000,-3.0000,-1.0000,3.0000,-40.0000,-16.0000,2.0000,-13.0000,2
16940.7900,0.0000,1.0000,3.0000,14.0000,67.0000,26.0000,-7.0000,6.0000,2
16945.7900,-3.0000,0.0000,3.0000,7.0000,3.0000,0.0000,3.0000,16.0000,2
16950.7900,-6.0000,-1.0000,-6.0000,3.0000,-4.0000,-4.0000,-6.0000,-27.0000,2
16955.7900,-2.0000,-1.0000,-5.0000,-2.0000,-6.0000,13.0000,4.0000,5.0000,2
16960.7900,4.0000,0.0000,3.0000,12.0000,10.0000,16.0000,1.0000,1.0000,2
16965.7900,2.0000,4.0000,13.0000,24.0000,110.0000,-11.0000,4.0000,0.0000,2
16970.7900,-8.0000,-12.0000,-21.0000,-50.0000,-120.0000,-61.0000,-5.0000,2.0000,2
16975.7900,1.0000,-3.0000,-6.0000,-16.0000,96.0000,-18.0000,-7.0000,6.0000,2
16980.7900,-6.0000,-1.0000,-2.0000,0.0000,53.0000,20.0000,-3.0000,13.0000,2
16985.7900,-1.0000,-1.0000,-5.0000,7.0000,49.0000,-38.0000,-10.0000,-43.0000,2
16990.7900,-5.0000,-2.0000,4.0000,22.0000,47.0000,-24.0000,-2.0000,-11.0000,2
16995.7900,-1.0000,-4.0000,-12.0000,-37.0000,-89.0000,-22.0000,-2.0000,-13.0000,2
17000.7900,-10.0000,-12.0000,-19.0000,-11.0000,-25.0000,-31.0000,-15.0000,-19.0000,2
17005.7900,0.0000,2.0000,3.0000,1.0000,24.0000,32.0000,9.0000,12.0000,2
17010.7900,1.0000,-1.0000,2.0000,7.0000,45.0000,22.0000,-5.0000,13.0000,2
17015.7900,0.0000,5.0000,1.0000,-16.0000,-81.0000,-32.0000,-1.0000,11.0000,2
17020.7900,2.0000,7.0000,8.0000,8.0000,59.0000,23.0000,7.0000,-7.0000,2
17025.7900,-1.0000,1.0000,-2.0000,-2.0000,-50.0000,-23.0000,-3.0000,11.0000,2
17030.7900,-3.0000,-3.0000,-6.0000,-10.0000,6.0000,-5.0000,-2.0000,-5.0000,2
17035.7900,11.0000,-1.0000,6.0000,27.0000,69.0000,35.0000,4.0000,32.0000,2
17040.7900,-12.0000,3.0000,5.0000,-1.0000,79.0000,1.0000,5.0000,-14.0000,2
17045.7900,-3.0000,-8.0000,-14.0000,-18.0000,-112.0000,-16.0000,-11.0000,-16.0000,2
17050.7900,5.0000,6.0000,10.0000,10.0000,28.0000,-2.0000,9.0000,12.0000,2
17055.7900,-3.0000,6.0000,7.0000,10.0000,47.0000,23.0000,-3.0000,-15.0000,2
17060.7900,5.0000,-11.0000,-10.0000,-10.0000,-101.0000,-36.0000,0.0000,28.0000,2
17065.7900,1.0000,7.0000,10.0000,-14.0000,1.0000,55.0000,17.0000,18.0000,2
17070.7900,-9.0000,-8.0000,-11.0000,4.0000,2.0000,3.0000,-12.0000,-49.0000,2
17075.7900,-1.0000,4.0000,13.0000,25.0000,95.0000,-31.0000,0.0000,-22.0000,2
17080.7900,7.0000,-4.0000,-5.0000,-9.0000,33.0000,18.0000,10.0000,4.0000,2
17085.7900,-3.0000,1.0000,5.0000,-7.0000,0.0000,75.0000,5.0000,-16.0000,2
17090.7900,9.0000,7.0000,13.0000,18.0000,3.0000,-13.0000,5.0000,16.0000,2
17095.7900,-3.0000,-7.0000,-18.0000,-25.0000,-96.0000,-26.0000,-4.0000,8.0000,2
17100.7900,2.0000,7.0000,8.0000,20.0000,9.0000,6.0000,0.0000,-33.0000,2
17105.7900,-4.0000,-2.0000,-1.0000,-2.0000,16.0000,-24.0000,-10.0000,27.0000,2
