100.0001,1767211407.0000,1767211407.0000,1767211407.0000,1767211407.0000,1767211407.0000,1767211407.0000,1767211407.0000,1767211407.0000,0
110.0001,390255688.0000,390255688.0000,390255688.0000,390255688.0000,390255688.0000,390255688.0000,390255688.0000,390255688.0000,0
120.0001,390255688.0000,390255688.0000,390255688.0000,390255688.0000,390255688.0000,390255688.0000,390255688.0000,390255688.0000,0
130.0001,1160783616.0000,1160783616.0000,1160783616.0000,1160783616.0000,1160783616.0000,1160783616.0000,1160783616.0000,1160783616.0000,0
140.0001,1160783616.0000,1160783616.0000,1160783616.0000,1160783616.0000,1160783616.0000,1160783616.0000,1160783616.0000,1160783616.0000,0
150.0001,809411725.0000,809411725.0000,809411725.0000,809411725.0000,809411725.0000,809411725.0000,809411725.0000,809411725.0000,0
160.0001,1579939653.0000,1579939653.0000,1579939653.0000,1579939653.0000,1579939653.0000,1579939653.0000,1579939653.0000,1579939653.0000,0
170.0003,1579939653.0000,1579939653.0000,1579939653.0000,1579939653.0000,1579939653.0000,1579939653.0000,1579939653.0000,1579939653.0000,0
180.0002,1228567762.0000,1228567762.0000,1228567762.0000,1228567762.0000,1228567762.0000,1228567762.0000,1228567762.0000,1228567762.0000,0
190.0001,1999095690.0000,1999095690.0000,1999095690.0000,1999095690.0000,1999095690.0000,1999095690.0000,1999095690.0000,1999095690.0000,0
200.0001,1999095690.0000,1999095690.0000,1999095690.0000,1999095690.0000,1999095690.0000,1999095690.0000,1999095690.0000,1999095690.0000,0
210.0001,622139971.0000,622139971.0000,622139971.0000,622139971.0000,622139971.0000,622139971.0000,622139971.0000,622139971.0000,0
220.0001,270768080.0000,270768080.0000,270768080.0000,270768080.0000,270768080.0000,270768080.0000,270768080.0000,270768080.0000,0
230.0002,270768080.0000,270768080.0000,270768080.0000,270768080.0000,270768080.0000,270768080.0000,270768080.0000,270768080.0000,0
240.0001,1041296008.0000,1041296008.0000,1041296008.0000,1041296008.0000,1041296008.0000,1041296008.0000,1041296008.0000,1041296008.0000,0
250.0001,1041296008.0000,1041296008.0000,1041296008.0000,1041296008.0000,1041296008.0000,1041296008.0000,1041296008.0000,1041296008.0000,0
260.0001,1811823936.0000,1811823936.0000,1811823936.0000,1811823936.0000,1811823936.0000,1811823936.0000,1811823936.0000,1811823936.0000,0
270.0004,1460452045.0000,1460452045.0000,1460452045.0000,1460452045.0000,1460452045.0000,1460452045.0000,1460452045.0000,1460452045.0000,0
280.0003,1460452045.0000,1460452045.0000,1460452045.0000,1460452045.0000,1460452045.0000,1460452045.0000,1460452045.0000,1460452045.0000,0
290.0002,83496326.0000,83496326.0000,83496326.0000,83496326.0000,83496326.0000,83496326.0000,83496326.0000,83496326.0000,0
300.0001,1879608082.0000,1879608082.0000,1879608082.0000,1879608082.0000,1879608082.0000,1879608082.0000,1879608082.0000,1879608082.0000,0
310.0001,1879608082.0000,1879608082.0000,1879608082.0000,1879608082.0000,1879608082.0000,1879608082.0000,1879608082.0000,1879608082.0000,0
320.0001,502652363.0000,502652363.0000,502652363.0000,502652363.0000,502652363.0000,502652363.0000,502652363.0000,502652363.0000,0
330.0002,1273180291.0000,1273180291.0000,1273180291.0000,1273180291.0000,1273180291.0000,1273180291.0000,1273180291.0000,1273180291.0000,0
340.0001,1273180291.0000,1273180291.0000,1273180291.0000,1273180291.0000,1273180291.0000,1273180291.0000,1273180291.0000,1273180291.0000,0
350.0002,921808400.0000,921808400.0000,921808400.0000,921808400.0000,921808400.0000,921808400.0000,921808400.0000,921808400.0000,0
360.0001,1692336328.0000,1692336328.0000,1692336328.0000,1692336328.0000,1692336328.0000,1692336328.0000,1692336328.0000,1692336328.0000,0
370.0001,1692336328.0000,1692336328.0000,1692336328.0000,1692336328.0000,1692336328.0000,1692336328.0000,1692336328.0000,1692336328.0000,0
380.0002,315380609.0000,315380609.0000,315380609.0000,315380609.0000,315380609.0000,315380609.0000,315380609.0000,315380609.0000,0
390.0001,315380609.0000,315380609.0000,315380609.0000,315380609.0000,315380609.0000,315380609.0000,315380609.0000,315380609.0000,0
400.0001,2111492365.0000,2111492365.0000,2111492365.0000,2111492365.0000,2111492365.0000,2111492365.0000,2111492365.0000,2111492365.0000,0
410.0002,734536646.0000,734536646.0000,734536646.0000,734536646.0000,734536646.0000,734536646.0000,734536646.0000,734536646.0000,0
420.0004,734536646.0000,734536646.0000,734536646.0000,734536646.0000,734536646.0000,734536646.0000,734536646.0000,734536646.0000,0
430.0001,383164755.0000,383164755.0000,383164755.0000,383164755.0000,383164755.0000,383164755.0000,383164755.0000,383164755.0000,0
440.0001,1153692683.0000,1153692683.0000,1153692683.0000,1153692683.0000,1153692683.0000,1153692683.0000,1153692683.0000,1153692683.0000,0
450.0001,1153692683.0000,1153692683.0000,1153692683.0000,1153692683.0000,1153692683.0000,1153692683.0000,1153692683.0000,1153692683.0000,0
460.0001,1924220611.0000,1924220611.0000,1924220611.0000,1924220611.0000,1924220611.0000,1924220611.0000,1924220611.0000,1924220611.0000,0
470.0000,1572848720.0000,1572848720.0000,1572848720.0000,1572848720.0000,1572848720.0000,1572848720.0000,1572848720.0000,1572848720.0000,0
480.0001,1572848720.0000,1572848720.0000,1572848720.0000,1572848720.0000,1572848720.0000,1572848720.0000,1572848720.0000,1572848720.0000,0
490.0001,195893001.0000,195893001.0000,195893001.0000,195893001.0000,195893001.0000,195893001.0000,195893001.0000,195893001.0000,0
500.0001,195893001.0000,195893001.0000,195893001.0000,195893001.0000,195893001.0000,195893001.0000,195893001.0000,195893001.0000,0
510.0000,966420929.0000,966420929.0000,966420929.0000,966420929.0000,966420929.0000,966420929.0000,966420929.0000,966420929.0000,0
520.0001,615049038.0000,615049038.0000,615049038.0000,615049038.0000,615049038.0000,615049038.0000,615049038.0000,615049038.0000,0
530.0001,615049038.0000,615049038.0000,615049038.0000,615049038.0000,615049038.0000,615049038.0000,615049038.0000,615049038.0000,0
540.0001,1385576966.0000,1385576966.0000,1385576966.0000,1385576966.0000,1385576966.0000,1385576966.0000,1385576966.0000,1385576966.0000,0
550.0001,1034205075.0000,1034205075.0000,1034205075.0000,1034205075.0000,1034205075.0000,1034205075.0000,1034205075.0000,1034205075.0000,0
560.0001,1034205075.0000,1034205075.0000,1034205075.0000,1034205075.0000,1034205075.0000,1034205075.0000,1034205075.0000,1034205075.0000,0
570.0001,1804733003.0000,1804733003.0000,1804733003.0000,1804733003.0000,1804733003.0000,1804733003.0000,1804733003.0000,1804733003.0000,0
580.0001,427777284.0000,427777284.0000,427777284.0000,427777284.0000,427777284.0000,427777284.0000,427777284.0000,427777284.0000,0
590.0001,427777284.0000,427777284.0000,427777284.0000,427777284.0000,427777284.0000,427777284.0000,427777284.0000,427777284.0000,0
600.0001,76405393.0000,76405393.0000,76405393.0000,76405393.0000,76405393.0000,76405393.0000,76405393.0000,76405393.0000,0
610.0001,846933321.0000,846933321.0000,846933321.0000,846933321.0000,846933321.0000,846933321.0000,846933321.0000,846933321.0000,0
620.0001,846933321.0000,846933321.0000,846933321.0000,846933321.0000,846933321.0000,846933321.0000,846933321.0000,846933321.0000,0
630.0001,1617461249.0000,1617461249.0000,1617461249.0000,1617461249.0000,1617461249.0000,1617461249.0000,1617461249.0000,1617461249.0000,0
640.0001,1617461249.0000,1617461249.0000,1617461249.0000,1617461249.0000,1617461249.0000,1617461249.0000,1617461249.0000,1617461249.0000,0
650.0001,1266089358.0000,1266089358.0000,1266089358.0000,1266089358.0000,1266089358.0000,1266089358.0000,1266089358.0000,1266089358.0000,0
660.0001,2036617286.0000,2036617286.0000,2036617286.0000,2036617286.0000,2036617286.0000,2036617286.0000,2036617286.0000,2036617286.0000,0
670.0001,2036617286.0000,2036617286.0000,2036617286.0000,2036617286.0000,2036617286.0000,2036617286.0000,2036617286.0000,2036617286.0000,0
680.0001,1685245395.0000,1685245395.0000,1685245395.0000,1685245395.0000,1685245395.0000,1685245395.0000,1685245395.0000,1685245395.0000,0
690.0001,308289676.0000,308289676.0000,308289676.0000,308289676.0000,308289676.0000,308289676.0000,308289676.0000,308289676.0000,0
700.0001,308289676.0000,308289676.0000,308289676.0000,308289676.0000,308289676.0000,308289676.0000,308289676.0000,308289676.0000,0
710.0001,1078817604.0000,1078817604.0000,1078817604.0000,1078817604.0000,1078817604.0000,1078817604.0000,1078817604.0000,1078817604.0000,0
720.0001,727445713.0000,727445713.0000,727445713.0000,727445713.0000,727445713.0000,727445713.0000,727445713.0000,727445713.0000,0
730.0001,727445713.0000,727445713.0000,727445713.0000,727445713.0000,727445713.0000,727445713.0000,727445713.0000,727445713.0000,0
740.0001,1497973641.0000,1497973641.0000,1497973641.0000,1497973641.0000,1497973641.0000,1497973641.0000,1497973641.0000,1497973641.0000,0
750.0001,1497973641.0000,1497973641.0000,1497973641.0000,1497973641.0000,1497973641.0000,1497973641.0000,1497973641.0000,1497973641.0000,0
760.0001,121017922.0000,121017922.0000,121017922.0000,121017922.0000,121017922.0000,121017922.0000,121017922.0000,121017922.0000,0
770.0001,1917129678.0000,1917129678.0000,1917129678.0000,1917129678.0000,1917129678.0000,1917129678.0000,1917129678.0000,1917129678.0000,0
780.0001,1917129678.0000,1917129678.0000,1917129678.0000,1917129678.0000,1917129678.0000,1917129678.0000,1917129678.0000,1917129678.0000,0
790.0001,540173959.0000,540173959.0000,540173959.0000,540173959.0000,540173959.0000,540173959.0000,540173959.0000,540173959.0000,0
800.0001,188802068.0000,188802068.0000,188802068.0000,188802068.0000,188802068.0000,188802068.0000,188802068.0000,188802068.0000,0
810.0001,188802068.0000,188802068.0000,188802068.0000,188802068.0000,188802068.0000,188802068.0000,188802068.0000,188802068.0000,0
820.0002,959329996.0000,959329996.0000,959329996.0000,959329996.0000,959329996.0000,959329996.0000,959329996.0000,959329996.0000,0
830.0001,1729857924.0000,1729857924.0000,1729857924.0000,1729857924.0000,1729857924.0000,1729857924.0000,1729857924.0000,1729857924.0000,0
840.0002,1729857924.0000,1729857924.0000,1729857924.0000,1729857924.0000,1729857924.0000,1729857924.0000,1729857924.0000,1729857924.0000,0
850.0002,1378486033.0000,1378486033.0000,1378486033.0000,1378486033.0000,1378486033.0000,1378486033.0000,1378486033.0000,1378486033.0000,0
860.0001,1530314.0000,1530314.0000,1530314.0000,1530314.0000,1530314.0000,1530314.0000,1530314.0000,1530314.0000,0
870.0001,1530314.0000,1530314.0000,1530314.0000,1530314.0000,1530314.0000,1530314.0000,1530314.0000,1530314.0000,0
880.0001,772058242.0000,772058242.0000,772058242.0000,772058242.0000,772058242.0000,772058242.0000,772058242.0000,772058242.0000,0
890.0001,772058242.0000,772058242.0000,772058242.0000,772058242.0000,772058242.0000,772058242.0000,772058242.0000,772058242.0000,0
900.0001,420686351.0000,420686351.0000,420686351.0000,420686351.0000,420686351.0000,420686351.0000,420686351.0000,420686351.0000,0
910.0001,1191214279.0000,1191214279.0000,1191214279.0000,1191214279.0000,1191214279.0000,1191214279.0000,1191214279.0000,1191214279.0000,0
920.0001,1191214279.0000,1191214279.0000,1191214279.0000,1191214279.0000,1191214279.0000,1191214279.0000,1191214279.0000,1191214279.0000,0
930.0001,839842388.0000,839842388.0000,839842388.0000,839842388.0000,839842388.0000,839842388.0000,839842388.0000,839842388.0000,0
940.0001,1610370316.0000,1610370316.0000,1610370316.0000,1610370316.0000,1610370316.0000,1610370316.0000,1610370316.0000,1610370316.0000,0
950.0001,1610370316.0000,1610370316.0000,1610370316.0000,1610370316.0000,1610370316.0000,1610370316.0000,1610370316.0000,1610370316.0000,0
960.0001,233414597.0000,233414597.0000,233414597.0000,233414597.0000,233414597.0000,233414597.0000,233414597.0000,233414597.0000,0
970.0001,2029526353.0000,2029526353.0000,2029526353.0000,2029526353.0000,2029526353.0000,2029526353.0000,2029526353.0000,2029526353.0000,0
980.0001,2029526353.0000,2029526353.0000,2029526353.0000,2029526353.0000,2029526353.0000,2029526353.0000,2029526353.0000,2029526353.0000,0
990.0001,652570634.0000,652570634.0000,652570634.0000,652570634.0000,652570634.0000,652570634.0000,652570634.0000,652570634.0000,0
1000.0000,652570634.0000,652570634.0000,652570634.0000,652570634.0000,652570634.0000,652570634.0000,652570634.0000,652570634.0000,0
1010.0000,1423098562.0000,1423098562.0000,1423098562.0000,1423098562.0000,1423098562.0000,1423098562.0000,1423098562.0000,1423098562.0000,0
1020.0000,1071726671.0000,1071726671.0000,1071726671.0000,1071726671.0000,1071726671.0000,1071726671.0000,1071726671.0000,1071726671.0000,0
1030.0000,1071726671.0000,1071726671.0000,1071726671.0000,1071726671.0000,1071726671.0000,1071726671.0000,1071726671.0000,1071726671.0000,0
1040.0000,1842254599.0000,1842254599.0000,1842254599.0000,1842254599.0000,1842254599.0000,1842254599.0000,1842254599.0000,1842254599.0000,0
1050.0000,1490882708.0000,1490882708.0000,1490882708.0000,1490882708.0000,1490882708.0000,1490882708.0000,1490882708.0000,1490882708.0000,0
1060.0000,1490882708.0000,1490882708.0000,1490882708.0000,1490882708.0000,1490882708.0000,1490882708.0000,1490882708.0000,1490882708.0000,0
1070.0000,113926989.0000,113926989.0000,113926989.0000,113926989.0000,113926989.0000,113926989.0000,113926989.0000,113926989.0000,0
1080.0000,884454917.0000,884454917.0000,884454917.0000,884454917.0000,884454917.0000,884454917.0000,884454917.0000,884454917.0000,0
1090.0000,884454917.0000,884454917.0000,884454917.0000,884454917.0000,884454917.0000,884454917.0000,884454917.0000,884454917.0000,0
1200.0000,764967309.0000,764967309.0000,764967309.0000,764967309.0000,764967309.0000,764967309.0000,764967309.0000,764967309.0000,1
1210.0000,1535495237.0000,1535495237.0000,1535495237.0000,1535495237.0000,1535495237.0000,1535495237.0000,1535495237.0000,1535495237.0000,1
1220.0000,1184123346.0000,1184123346.0000,1184123346.0000,1184123346.0000,1184123346.0000,1184123346.0000,1184123346.0000,1184123346.0000,1
1230.0000,1184123346.0000,1184123346.0000,1184123346.0000,1184123346.0000,1184123346.0000,1184123346.0000,1184123346.0000,1184123346.0000,1
1240.0000,1954651274.0000,1954651274.0000,1954651274.0000,1954651274.0000,1954651274.0000,1954651274.0000,1954651274.0000,1954651274.0000,1
1250.0000,1954651274.0000,1954651274.0000,1954651274.0000,1954651274.0000,1954651274.0000,1954651274.0000,1954651274.0000,1954651274.0000,1
1260.0000,577695555.0000,577695555.0000,577695555.0000,577695555.0000,577695555.0000,577695555.0000,577695555.0000,577695555.0000,1
1270.0000,226323664.0000,226323664.0000,226323664.0000,226323664.0000,226323664.0000,226323664.0000,226323664.0000,226323664.0000,1
1280.0000,226323664.0000,226323664.0000,226323664.0000,226323664.0000,226323664.0000,226323664.0000,226323664.0000,226323664.0000,1
1290.0000,996851592.0000,996851592.0000,996851592.0000,996851592.0000,996851592.0000,996851592.0000,996851592.0000,996851592.0000,1
1300.0000,645479701.0000,645479701.0000,645479701.0000,645479701.0000,645479701.0000,645479701.0000,645479701.0000,645479701.0000,1
1310.0000,645479701.0000,645479701.0000,645479701.0000,645479701.0000,645479701.0000,645479701.0000,645479701.0000,645479701.0000,1
1320.0000,1416007629.0000,1416007629.0000,1416007629.0000,1416007629.0000,1416007629.0000,1416007629.0000,1416007629.0000,1416007629.0000,1
1330.0000,39051910.0000,39051910.0000,39051910.0000,39051910.0000,39051910.0000,39051910.0000,39051910.0000,39051910.0000,1
1340.0000,39051910.0000,39051910.0000,39051910.0000,39051910.0000,39051910.0000,39051910.0000,39051910.0000,39051910.0000,1
1350.0000,1835163666.0000,1835163666.0000,1835163666.0000,1835163666.0000,1835163666.0000,1835163666.0000,1835163666.0000,1835163666.0000,1
1360.0000,458207947.0000,458207947.0000,458207947.0000,458207947.0000,458207947.0000,458207947.0000,458207947.0000,458207947.0000,1
1370.0000,458207947.0000,458207947.0000,458207947.0000,458207947.0000,458207947.0000,458207947.0000,458207947.0000,458207947.0000,1
1380.0000,1228735875.0000,1228735875.0000,1228735875.0000,1228735875.0000,1228735875.0000,1228735875.0000,1228735875.0000,1228735875.0000,1
1390.0000,1228735875.0000,1228735875.0000,1228735875.0000,1228735875.0000,1228735875.0000,1228735875.0000,1228735875.0000,1228735875.0000,1
1400.0000,877363984.0000,877363984.0000,877363984.0000,877363984.0000,877363984.0000,877363984.0000,877363984.0000,877363984.0000,1
1410.0000,1647891912.0000,1647891912.0000,1647891912.0000,1647891912.0000,1647891912.0000,1647891912.0000,1647891912.0000,1647891912.0000,1
1420.0000,1647891912.0000,1647891912.0000,1647891912.0000,1647891912.0000,1647891912.0000,1647891912.0000,1647891912.0000,1647891912.0000,1
1430.0000,1296520021.0000,1296520021.0000,1296520021.0000,1296520021.0000,1296520021.0000,1296520021.0000,1296520021.0000,1296520021.0000,1
1440.0000,2067047949.0000,2067047949.0000,2067047949.0000,2067047949.0000,2067047949.0000,2067047949.0000,2067047949.0000,2067047949.0000,1
1450.0000,2067047949.0000,2067047949.0000,2067047949.0000,2067047949.0000,2067047949.0000,2067047949.0000,2067047949.0000,2067047949.0000,1
1460.0000,690092230.0000,690092230.0000,690092230.0000,690092230.0000,690092230.0000,690092230.0000,690092230.0000,690092230.0000,1
1470.0000,338720339.0000,338720339.0000,338720339.0000,338720339.0000,338720339.0000,338720339.0000,338720339.0000,338720339.0000,1
1480.0000,338720339.0000,338720339.0000,338720339.0000,338720339.0000,338720339.0000,338720339.0000,338720339.0000,338720339.0000,1
1490.0000,1109248267.0000,1109248267.0000,1109248267.0000,1109248267.0000,1109248267.0000,1109248267.0000,1109248267.0000,1109248267.0000,1
1500.0000,1109248267.0000,1109248267.0000,1109248267.0000,1109248267.0000,1109248267.0000,1109248267.0000,1109248267.0000,1109248267.0000,1
1510.0000,1879776195.0000,1879776195.0000,1879776195.0000,1879776195.0000,1879776195.0000,1879776195.0000,1879776195.0000,1879776195.0000,1
1520.0000,1528404304.0000,1528404304.0000,1528404304.0000,1528404304.0000,1528404304.0000,1528404304.0000,1528404304.0000,1528404304.0000,1
1530.0000,1528404304.0000,1528404304.0000,1528404304.0000,1528404304.0000,1528404304.0000,1528404304.0000,1528404304.0000,1528404304.0000,1
1540.0000,151448585.0000,151448585.0000,151448585.0000,151448585.0000,151448585.0000,151448585.0000,151448585.0000,151448585.0000,1
1550.0000,1947560341.0000,1947560341.0000,1947560341.0000,1947560341.0000,1947560341.0000,1947560341.0000,1947560341.0000,1947560341.0000,1
1560.0000,1947560341.0000,1947560341.0000,1947560341.0000,1947560341.0000,1947560341.0000,1947560341.0000,1947560341.0000,1947560341.0000,1
1570.0000,570604622.0000,570604622.0000,570604622.0000,570604622.0000,570604622.0000,570604622.0000,570604622.0000,570604622.0000,1
1580.0000,1341132550.0000,1341132550.0000,1341132550.0000,1341132550.0000,1341132550.0000,1341132550.0000,1341132550.0000,1341132550.0000,1
1590.0000,1341132550.0000,1341132550.0000,1341132550.0000,1341132550.0000,1341132550.0000,1341132550.0000,1341132550.0000,1341132550.0000,1
1600.0000,989760659.0000,989760659.0000,989760659.0000,989760659.0000,989760659.0000,989760659.0000,989760659.0000,989760659.0000,1
1610.0000,1760288587.0000,1760288587.0000,1760288587.0000,1760288587.0000,1760288587.0000,1760288587.0000,1760288587.0000,1760288587.0000,1
1620.0000,1760288587.0000,1760288587.0000,1760288587.0000,1760288587.0000,1760288587.0000,1760288587.0000,1760288587.0000,1760288587.0000,1
1630.0000,383332868.0000,383332868.0000,383332868.0000,383332868.0000,383332868.0000,383332868.0000,383332868.0000,383332868.0000,1
1640.0000,383332868.0000,383332868.0000,383332868.0000,383332868.0000,383332868.0000,383332868.0000,383332868.0000,383332868.0000,1
1650.0000,31960977.0000,31960977.0000,31960977.0000,31960977.0000,31960977.0000,31960977.0000,31960977.0000,31960977.0000,1
1660.0000,802488905.0000,802488905.0000,802488905.0000,802488905.0000,802488905.0000,802488905.0000,802488905.0000,802488905.0000,1
1670.0000,802488905.0000,802488905.0000,802488905.0000,802488905.0000,802488905.0000,802488905.0000,802488905.0000,802488905.0000,1
1680.0000,451117014.0000,451117014.0000,451117014.0000,451117014.0000,451117014.0000,451117014.0000,451117014.0000,451117014.0000,1
1690.0000,1221644942.0000,1221644942.0000,1221644942.0000,1221644942.0000,1221644942.0000,1221644942.0000,1221644942.0000,1221644942.0000,1
1700.0000,1221644942.0000,1221644942.0000,1221644942.0000,1221644942.0000,1221644942.0000,1221644942.0000,1221644942.0000,1221644942.0000,1
1710.0000,1992172870.0000,1992172870.0000,1992172870.0000,1992172870.0000,1992172870.0000,1992172870.0000,1992172870.0000,1992172870.0000,1
1720.0000,1640800979.0000,1640800979.0000,1640800979.0000,1640800979.0000,1640800979.0000,1640800979.0000,1640800979.0000,1640800979.0000,1
1730.0000,1640800979.0000,1640800979.0000,1640800979.0000,1640800979.0000,1640800979.0000,1640800979.0000,1640800979.0000,1640800979.0000,1
1740.0000,263845260.0000,263845260.0000,263845260.0000,263845260.0000,263845260.0000,263845260.0000,263845260.0000,263845260.0000,1
1750.0000,263845260.0000,263845260.0000,263845260.0000,263845260.0000,263845260.0000,263845260.0000,263845260.0000,263845260.0000,1
1760.0000,1034373188.0000,1034373188.0000,1034373188.0000,1034373188.0000,1034373188.0000,1034373188.0000,1034373188.0000,1034373188.0000,1
1770.0000,683001297.0000,683001297.0000,683001297.0000,683001297.0000,683001297.0000,683001297.0000,683001297.0000,683001297.0000,1
1780.0000,683001297.0000,683001297.0000,683001297.0000,683001297.0000,683001297.0000,683001297.0000,683001297.0000,683001297.0000,1
1790.0000,1453529225.0000,1453529225.0000,1453529225.0000,1453529225.0000,1453529225.0000,1453529225.0000,1453529225.0000,1453529225.0000,1
1800.0000,1102157334.0000,1102157334.0000,1102157334.0000,1102157334.0000,1102157334.0000,1102157334.0000,1102157334.0000,1102157334.0000,1
1810.0000,1102157334.0000,1102157334.0000,1102157334.0000,1102157334.0000,1102157334.0000,1102157334.0000,1102157334.0000,1102157334.0000,1
1820.0000,1872685262.0000,1872685262.0000,1872685262.0000,1872685262.0000,1872685262.0000,1872685262.0000,1872685262.0000,1872685262.0000,1
1830.0000,495729543.0000,495729543.0000,495729543.0000,495729543.0000,495729543.0000,495729543.0000,495729543.0000,495729543.0000,1
1840.0000,495729543.0000,495729543.0000,495729543.0000,495729543.0000,495729543.0000,495729543.0000,495729543.0000,495729543.0000,1
1850.0000,144357652.0000,144357652.0000,144357652.0000,144357652.0000,144357652.0000,144357652.0000,144357652.0000,144357652.0000,1
1860.0000,914885580.0000,914885580.0000,914885580.0000,914885580.0000,914885580.0000,914885580.0000,914885580.0000,914885580.0000,1
1870.0000,914885580.0000,914885580.0000,914885580.0000,914885580.0000,914885580.0000,914885580.0000,914885580.0000,914885580.0000,1
1880.0000,1685413508.0000,1685413508.0000,1685413508.0000,1685413508.0000,1685413508.0000,1685413508.0000,1685413508.0000,1685413508.0000,1
1890.0000,1685413508.0000,1685413508.0000,1685413508.0000,1685413508.0000,1685413508.0000,1685413508.0000,1685413508.0000,1685413508.0000,1
1900.0000,1334041617.0000,1334041617.0000,1334041617.0000,1334041617.0000,1334041617.0000,1334041617.0000,1334041617.0000,1334041617.0000,1
1910.0000,2104569545.0000,2104569545.0000,2104569545.0000,2104569545.0000,2104569545.0000,2104569545.0000,2104569545.0000,2104569545.0000,1
1920.0000,2104569545.0000,2104569545.0000,2104569545.0000,2104569545.0000,2104569545.0000,2104569545.0000,2104569545.0000,2104569545.0000,1
1930.0000,1753197654.0000,1753197654.0000,1753197654.0000,1753197654.0000,1753197654.0000,1753197654.0000,1753197654.0000,1753197654.0000,1
1940.0000,376241935.0000,376241935.0000,376241935.0000,376241935.0000,376241935.0000,376241935.0000,376241935.0000,376241935.0000,1
1950.0000,376241935.0000,376241935.0000,376241935.0000,376241935.0000,376241935.0000,376241935.0000,376241935.0000,376241935.0000,1
1960.0000,1146769863.0000,1146769863.0000,1146769863.0000,1146769863.0000,1146769863.0000,1146769863.0000,1146769863.0000,1146769863.0000,1
1970.0000,795397972.0000,795397972.0000,795397972.0000,795397972.0000,795397972.0000,795397972.0000,795397972.0000,795397972.0000,1
1980.0000,795397972.0000,795397972.0000,795397972.0000,795397972.0000,795397972.0000,795397972.0000,795397972.0000,795397972.0000,1
1990.0000,1565925900.0000,1565925900.0000,1565925900.0000,1565925900.0000,1565925900.0000,1565925900.0000,1565925900.0000,1565925900.0000,1
2000.0000,188970181.0000,188970181.0000,188970181.0000,188970181.0000,188970181.0000,188970181.0000,188970181.0000,188970181.0000,1
2010.0000,188970181.0000,188970181.0000,188970181.0000,188970181.0000,188970181.0000,188970181.0000,188970181.0000,188970181.0000,1
2020.0000,1985081937.0000,1985081937.0000,1985081937.0000,1985081937.0000,1985081937.0000,1985081937.0000,1985081937.0000,1985081937.0000,1
2030.0000,1985081937.0000,1985081937.0000,1985081937.0000,1985081937.0000,1985081937.0000,1985081937.0000,1985081937.0000,1985081937.0000,1
2040.0000,608126218.0000,608126218.0000,608126218.0000,608126218.0000,608126218.0000,608126218.0000,608126218.0000,608126218.0000,1
2050.0000,256754327.0000,256754327.0000,256754327.0000,256754327.0000,256754327.0000,256754327.0000,256754327.0000,256754327.0000,1
2060.0000,256754327.0000,256754327.0000,256754327.0000,256754327.0000,256754327.0000,256754327.0000,256754327.0000,256754327.0000,1
2070.0000,1027282255.0000,1027282255.0000,1027282255.0000,1027282255.0000,1027282255.0000,1027282255.0000,1027282255.0000,1027282255.0000,1
2080.0000,1797810183.0000,1797810183.0000,1797810183.0000,1797810183.0000,1797810183.0000,1797810183.0000,1797810183.0000,1797810183.0000,1
2090.0000,1797810183.0000,1797810183.0000,1797810183.0000,1797810183.0000,1797810183.0000,1797810183.0000,1797810183.0000,1797810183.0000,1
2100.0000,1446438292.0000,1446438292.0000,1446438292.0000,1446438292.0000,1446438292.0000,1446438292.0000,1446438292.0000,1446438292.0000,1
2110.0000,69482573.0000,69482573.0000,69482573.0000,69482573.0000,69482573.0000,69482573.0000,69482573.0000,69482573.0000,1
2120.0000,69482573.0000,69482573.0000,69482573.0000,69482573.0000,69482573.0000,69482573.0000,69482573.0000,69482573.0000,1
2130.0000,840010501.0000,840010501.0000,840010501.0000,840010501.0000,840010501.0000,840010501.0000,840010501.0000,840010501.0000,1
2140.0000,840010501.0000,840010501.0000,840010501.0000,840010501.0000,840010501.0000,840010501.0000,840010501.0000,840010501.0000,1
2150.0000,488638610.0000,488638610.0000,488638610.0000,488638610.0000,488638610.0000,488638610.0000,488638610.0000,488638610.0000,1
2160.0000,1259166538.0000,1259166538.0000,1259166538.0000,1259166538.0000,1259166538.0000,1259166538.0000,1259166538.0000,1259166538.0000,1
2170.0000,1259166538.0000,1259166538.0000,1259166538.0000,1259166538.0000,1259166538.0000,1259166538.0000,1259166538.0000,1259166538.0000,1
2180.0000,907794647.0000,907794647.0000,907794647.0000,907794647.0000,907794647.0000,907794647.0000,907794647.0000,907794647.0000,1
2190.0000,1678322575.0000,1678322575.0000,1678322575.0000,1678322575.0000,1678322575.0000,1678322575.0000,1678322575.0000,1678322575.0000,1
2300.0000,1558834967.0000,1558834967.0000,1558834967.0000,1558834967.0000,1558834967.0000,1558834967.0000,1558834967.0000,1558834967.0000,2
2310.0000,1558834967.0000,1558834967.0000,1558834967.0000,1558834967.0000,1558834967.0000,1558834967.0000,1558834967.0000,1558834967.0000,2
2320.0000,181879248.0000,181879248.0000,181879248.0000,181879248.0000,181879248.0000,181879248.0000,181879248.0000,181879248.0000,2
2330.0000,952407176.0000,952407176.0000,952407176.0000,952407176.0000,952407176.0000,952407176.0000,952407176.0000,952407176.0000,2
2340.0000,952407176.0000,952407176.0000,952407176.0000,952407176.0000,952407176.0000,952407176.0000,952407176.0000,952407176.0000,2
2350.0000,601035285.0000,601035285.0000,601035285.0000,601035285.0000,601035285.0000,601035285.0000,601035285.0000,601035285.0000,2
2360.0000,1371563213.0000,1371563213.0000,1371563213.0000,1371563213.0000,1371563213.0000,1371563213.0000,1371563213.0000,1371563213.0000,2
2370.0000,1371563213.0000,1371563213.0000,1371563213.0000,1371563213.0000,1371563213.0000,1371563213.0000,1371563213.0000,1371563213.0000,2
2380.0000,2142091141.0000,2142091141.0000,2142091141.0000,2142091141.0000,2142091141.0000,2142091141.0000,2142091141.0000,2142091141.0000,2
2390.0000,2142091141.0000,2142091141.0000,2142091141.0000,2142091141.0000,2142091141.0000,2142091141.0000,2142091141.0000,2142091141.0000,2
2400.0000,1790719250.0000,1790719250.0000,1790719250.0000,1790719250.0000,1790719250.0000,1790719250.0000,1790719250.0000,1790719250.0000,2
2410.0000,413763531.0000,413763531.0000,413763531.0000,413763531.0000,413763531.0000,413763531.0000,413763531.0000,413763531.0000,2
2420.0000,413763531.0000,413763531.0000,413763531.0000,413763531.0000,413763531.0000,413763531.0000,413763531.0000,413763531.0000,2
2430.0000,62391640.0000,62391640.0000,62391640.0000,62391640.0000,62391640.0000,62391640.0000,62391640.0000,62391640.0000,2
2440.0000,832919568.0000,832919568.0000,832919568.0000,832919568.0000,832919568.0000,832919568.0000,832919568.0000,832919568.0000,2
2450.0000,832919568.0000,832919568.0000,832919568.0000,832919568.0000,832919568.0000,832919568.0000,832919568.0000,832919568.0000,2
2460.0000,1603447496.0000,1603447496.0000,1603447496.0000,1603447496.0000,1603447496.0000,1603447496.0000,1603447496.0000,1603447496.0000,2
2470.0000,1252075605.0000,1252075605.0000,1252075605.0000,1252075605.0000,1252075605.0000,1252075605.0000,1252075605.0000,1252075605.0000,2
2480.0000,1252075605.0000,1252075605.0000,1252075605.0000,1252075605.0000,1252075605.0000,1252075605.0000,1252075605.0000,1252075605.0000,2
2490.0000,2022603533.0000,2022603533.0000,2022603533.0000,2022603533.0000,2022603533.0000,2022603533.0000,2022603533.0000,2022603533.0000,2
2500.0000,645647814.0000,645647814.0000,645647814.0000,645647814.0000,645647814.0000,645647814.0000,645647814.0000,645647814.0000,2
2510.0000,645647814.0000,645647814.0000,645647814.0000,645647814.0000,645647814.0000,645647814.0000,645647814.0000,645647814.0000,2
2520.0000,294275923.0000,294275923.0000,294275923.0000,294275923.0000,294275923.0000,294275923.0000,294275923.0000,294275923.0000,2
2530.0000,294275923.0000,294275923.0000,294275923.0000,294275923.0000,294275923.0000,294275923.0000,294275923.0000,294275923.0000,2
2540.0000,1064803851.0000,1064803851.0000,1064803851.0000,1064803851.0000,1064803851.0000,1064803851.0000,1064803851.0000,1064803851.0000,2
2550.0000,713431960.0000,713431960.0000,713431960.0000,713431960.0000,713431960.0000,713431960.0000,713431960.0000,713431960.0000,2
2560.0000,713431960.0000,713431960.0000,713431960.0000,713431960.0000,713431960.0000,713431960.0000,713431960.0000,713431960.0000,2
2570.0000,1483959888.0000,1483959888.0000,1483959888.0000,1483959888.0000,1483959888.0000,1483959888.0000,1483959888.0000,1483959888.0000,2
2580.0000,107004169.0000,107004169.0000,107004169.0000,107004169.0000,107004169.0000,107004169.0000,107004169.0000,107004169.0000,2
2590.0000,107004169.0000,107004169.0000,107004169.0000,107004169.0000,107004169.0000,107004169.0000,107004169.0000,107004169.0000,2
2600.0000,1903115925.0000,1903115925.0000,1903115925.0000,1903115925.0000,1903115925.0000,1903115925.0000,1903115925.0000,1903115925.0000,2
2610.0000,526160206.0000,526160206.0000,526160206.0000,526160206.0000,526160206.0000,526160206.0000,526160206.0000,526160206.0000,2
2620.0000,526160206.0000,526160206.0000,526160206.0000,526160206.0000,526160206.0000,526160206.0000,526160206.0000,526160206.0000,2
2630.0000,1296688134.0000,1296688134.0000,1296688134.0000,1296688134.0000,1296688134.0000,1296688134.0000,1296688134.0000,1296688134.0000,2
2640.0000,1296688134.0000,1296688134.0000,1296688134.0000,1296688134.0000,1296688134.0000,1296688134.0000,1296688134.0000,1296688134.0000,2
2650.0000,945316243.0000,945316243.0000,945316243.0000,945316243.0000,945316243.0000,945316243.0000,945316243.0000,945316243.0000,2
2660.0000,1715844171.0000,1715844171.0000,1715844171.0000,1715844171.0000,1715844171.0000,1715844171.0000,1715844171.0000,1715844171.0000,2
2670.0000,1715844171.0000,1715844171.0000,1715844171.0000,1715844171.0000,1715844171.0000,1715844171.0000,1715844171.0000,1715844171.0000,2
2680.0000,1364472280.0000,1364472280.0000,1364472280.0000,1364472280.0000,1364472280.0000,1364472280.0000,1364472280.0000,1364472280.0000,2
2690.0000,2135000208.0000,2135000208.0000,2135000208.0000,2135000208.0000,2135000208.0000,2135000208.0000,2135000208.0000,2135000208.0000,2
2700.0000,2135000208.0000,2135000208.0000,2135000208.0000,2135000208.0000,2135000208.0000,2135000208.0000,2135000208.0000,2135000208.0000,2
2710.0000,758044489.0000,758044489.0000,758044489.0000,758044489.0000,758044489.0000,758044489.0000,758044489.0000,758044489.0000,2
2720.0000,406672598.0000,406672598.0000,406672598.0000,406672598.0000,406672598.0000,406672598.0000,406672598.0000,406672598.0000,2
2730.0000,406672598.0000,406672598.0000,406672598.0000,406672598.0000,406672598.0000,406672598.0000,406672598.0000,406672598.0000,2
2740.0000,1177200526.0000,1177200526.0000,1177200526.0000,1177200526.0000,1177200526.0000,1177200526.0000,1177200526.0000,1177200526.0000,2
2750.0000,1947728454.0000,1947728454.0000,1947728454.0000,1947728454.0000,1947728454.0000,1947728454.0000,1947728454.0000,1947728454.0000,2
2760.0000,1947728454.0000,1947728454.0000,1947728454.0000,1947728454.0000,1947728454.0000,1947728454.0000,1947728454.0000,1947728454.0000,2
2770.0000,1596356563.0000,1596356563.0000,1596356563.0000,1596356563.0000,1596356563.0000,1596356563.0000,1596356563.0000,1596356563.0000,2
2780.0000,1596356563.0000,1596356563.0000,1596356563.0000,1596356563.0000,1596356563.0000,1596356563.0000,1596356563.0000,1596356563.0000,2
2790.0000,219400844.0000,219400844.0000,219400844.0000,219400844.0000,219400844.0000,219400844.0000,219400844.0000,219400844.0000,2
2800.0020,2015512600.0000,2015512600.0000,2015512600.0000,2015512600.0000,2015512600.0000,2015512600.0000,2015512600.0000,2015512600.0000,2
2810.0000,2015512600.0000,2015512600.0000,2015512600.0000,2015512600.0000,2015512600.0000,2015512600.0000,2015512600.0000,2015512600.0000,2
2820.0000,638556881.0000,638556881.0000,638556881.0000,638556881.0000,638556881.0000,638556881.0000,638556881.0000,638556881.0000,2
2830.0000,1409084809.0000,1409084809.0000,1409084809.0000,1409084809.0000,1409084809.0000,1409084809.0000,1409084809.0000,1409084809.0000,2
2840.0000,1409084809.0000,1409084809.0000,1409084809.0000,1409084809.0000,1409084809.0000,1409084809.0000,1409084809.0000,1409084809.0000,2
2850.0000,1057712918.0000,1057712918.0000,1057712918.0000,1057712918.0000,1057712918.0000,1057712918.0000,1057712918.0000,1057712918.0000,2
2860.0000,1828240846.0000,1828240846.0000,1828240846.0000,1828240846.0000,1828240846.0000,1828240846.0000,1828240846.0000,1828240846.0000,2
2870.0000,1828240846.0000,1828240846.0000,1828240846.0000,1828240846.0000,1828240846.0000,1828240846.0000,1828240846.0000,1828240846.0000,2
2880.0000,451285127.0000,451285127.0000,451285127.0000,451285127.0000,451285127.0000,451285127.0000,451285127.0000,451285127.0000,2
2890.0000,451285127.0000,451285127.0000,451285127.0000,451285127.0000,451285127.0000,451285127.0000,451285127.0000,451285127.0000,2
2900.0000,99913236.0000,99913236.0000,99913236.0000,99913236.0000,99913236.0000,99913236.0000,99913236.0000,99913236.0000,2
2910.0000,870441164.0000,870441164.0000,870441164.0000,870441164.0000,870441164.0000,870441164.0000,870441164.0000,870441164.0000,2
2920.0000,870441164.0000,870441164.0000,870441164.0000,870441164.0000,870441164.0000,870441164.0000,870441164.0000,870441164.0000,2
2930.0000,519069273.0000,519069273.0000,519069273.0000,519069273.0000,519069273.0000,519069273.0000,519069273.0000,519069273.0000,2
2940.0000,1289597201.0000,1289597201.0000,1289597201.0000,1289597201.0000,1289597201.0000,1289597201.0000,1289597201.0000,1289597201.0000,2
2950.0000,1289597201.0000,1289597201.0000,1289597201.0000,1289597201.0000,1289597201.0000,1289597201.0000,1289597201.0000,1289597201.0000,2
2960.0000,2060125129.0000,2060125129.0000,2060125129.0000,2060125129.0000,2060125129.0000,2060125129.0000,2060125129.0000,2060125129.0000,2
2970.0000,1708753238.0000,1708753238.0000,1708753238.0000,1708753238.0000,1708753238.0000,1708753238.0000,1708753238.0000,1708753238.0000,2
2980.0140,1708753238.0000,1708753238.0000,1708753238.0000,1708753238.0000,1708753238.0000,1708753238.0000,1708753238.0000,1708753238.0000,2
2990.0000,331797519.0000,331797519.0000,331797519.0000,331797519.0000,331797519.0000,331797519.0000,331797519.0000,331797519.0000,2
3000.0000,1102325447.0000,1102325447.0000,1102325447.0000,1102325447.0000,1102325447.0000,1102325447.0000,1102325447.0000,1102325447.0000,2
3010.0000,1102325447.0000,1102325447.0000,1102325447.0000,1102325447.0000,1102325447.0000,1102325447.0000,1102325447.0000,1102325447.0000,2
3020.0000,750953556.0000,750953556.0000,750953556.0000,750953556.0000,750953556.0000,750953556.0000,750953556.0000,750953556.0000,2
3030.0000,750953556.0000,750953556.0000,750953556.0000,750953556.0000,750953556.0000,750953556.0000,750953556.0000,750953556.0000,2
3040.0000,1521481484.0000,1521481484.0000,1521481484.0000,1521481484.0000,1521481484.0000,1521481484.0000,1521481484.0000,1521481484.0000,2
3050.0000,1170109593.0000,1170109593.0000,1170109593.0000,1170109593.0000,1170109593.0000,1170109593.0000,1170109593.0000,1170109593.0000,2
3060.0000,1170109593.0000,1170109593.0000,1170109593.0000,1170109593.0000,1170109593.0000,1170109593.0000,1170109593.0000,1170109593.0000,2
3070.0000,1940637521.0000,1940637521.0000,1940637521.0000,1940637521.0000,1940637521.0000,1940637521.0000,1940637521.0000,1940637521.0000,2
3080.0000,563681802.0000,563681802.0000,563681802.0000,563681802.0000,563681802.0000,563681802.0000,563681802.0000,563681802.0000,2
3090.0000,563681802.0000,563681802.0000,563681802.0000,563681802.0000,563681802.0000,563681802.0000,563681802.0000,563681802.0000,2
3100.0000,212309911.0000,212309911.0000,212309911.0000,212309911.0000,212309911.0000,212309911.0000,212309911.0000,212309911.0000,2
3110.0000,982837839.0000,982837839.0000,982837839.0000,982837839.0000,982837839.0000,982837839.0000,982837839.0000,982837839.0000,2
3120.0000,982837839.0000,982837839.0000,982837839.0000,982837839.0000,982837839.0000,982837839.0000,982837839.0000,982837839.0000,2
3130.0000,1753365767.0000,1753365767.0000,1753365767.0000,1753365767.0000,1753365767.0000,1753365767.0000,1753365767.0000,1753365767.0000,2
3140.0000,1753365767.0000,1753365767.0000,1753365767.0000,1753365767.0000,1753365767.0000,1753365767.0000,1753365767.0000,1753365767.0000,2
3150.0000,1401993876.0000,1401993876.0000,1401993876.0000,1401993876.0000,1401993876.0000,1401993876.0000,1401993876.0000,1401993876.0000,2
3160.0000,25038157.0000,25038157.0000,25038157.0000,25038157.0000,25038157.0000,25038157.0000,25038157.0000,25038157.0000,2
3170.0000,25038157.0000,25038157.0000,25038157.0000,25038157.0000,25038157.0000,25038157.0000,25038157.0000,25038157.0000,2
3180.0000,1821149913.0000,1821149913.0000,1821149913.0000,1821149913.0000,1821149913.0000,1821149913.0000,1821149913.0000,1821149913.0000,2
3190.0000,444194194.0000,444194194.0000,444194194.0000,444194194.0000,444194194.0000,444194194.0000,444194194.0000,444194194.0000,2
3200.0000,444194194.0000,444194194.0000,444194194.0000,444194194.0000,444194194.0000,444194194.0000,444194194.0000,444194194.0000,2
3210.0000,1214722122.0000,1214722122.0000,1214722122.0000,1214722122.0000,1214722122.0000,1214722122.0000,1214722122.0000,1214722122.0000,2
3220.0000,863350231.0000,863350231.0000,863350231.0000,863350231.0000,863350231.0000,863350231.0000,863350231.0000,863350231.0000,2
3230.0000,863350231.0000,863350231.0000,863350231.0000,863350231.0000,863350231.0000,863350231.0000,863350231.0000,863350231.0000,2
3240.0000,1633878159.0000,1633878159.0000,1633878159.0000,1633878159.0000,1633878159.0000,1633878159.0000,1633878159.0000,1633878159.0000,2
3250.0000,256922440.0000,256922440.0000,256922440.0000,256922440.0000,256922440.0000,256922440.0000,256922440.0000,256922440.0000,2
3260.0000,256922440.0000,256922440.0000,256922440.0000,256922440.0000,256922440.0000,256922440.0000,256922440.0000,256922440.0000,2
3270.0000,2053034196.0000,2053034196.0000,2053034196.0000,2053034196.0000,2053034196.0000,2053034196.0000,2053034196.0000,2053034196.0000,2
3280.0000,2053034196.0000,2053034196.0000,2053034196.0000,2053034196.0000,2053034196.0000,2053034196.0000,2053034196.0000,2053034196.0000,2
3290.0000,676078477.0000,676078477.0000,676078477.0000,676078477.0000,676078477.0000,676078477.0000,676078477.0000,676078477.0000,2
3300.0000,324706586.0000,324706586.0000,324706586.0000,324706586.0000,324706586.0000,324706586.0000,324706586.0000,324706586.0000,2
